# Ac
# Form Factors from Chantler Tables
# DOI: https://dx.doi.org/10.18434/T4HS32
# automatically retrived 2019-02-28 using URL https://physics.nist.gov/cgi-bin/ffast/ffast.pl

# For f_rel the second term, which is 3/5th of the Cromer-Liberman value, is used as suggested by Chantler.
# Real and imaginary part of the formfactors are: f'(E)=f1(E)+f_rel+f_NT and f''(E)=f2(E)
# see also original publication:  https://doi.org/10.1063/1.555974

# Z = 89
# f_rel = -1.3722 e/atom  (Relativistic correction estimate)
# f_NT = -0.01914 e/atom (Nuclear Thomson correction)


#        E (eV)            f1 (e/atom)          f2 (e/atom)     
         10.69               19.8738                0.0         
        11.42761              19.731                0.0         
        12.21612             19.5519                0.0         
        13.05903             19.3217                0.0         
        13.9601              19.0154                0.0         
        14.92335             18.5856                0.0         
        15.95306             17.9255                0.0         
        17.05382             16.7021                0.0         
        18.03405             13.6882                0.0         
        18.23053             11.7526                0.0         
        18.31008             10.1151                0.0         
        18.38369             5.74963                0.0         
        18.4941              10.4311               8.6357       
        18.77013             14.5434               8.2993       
        19.48844             17.8163               7.5041       
        20.83314             19.9561               6.2727       
        22.27063              20.682               5.2323       
        23.8073               20.412               4.3595       
        24.6814              19.2537               3.9502       
        25.05918              17.228               3.7897       
        25.15992             14.6607               3.7485       
        25.31103             17.4902               8.8114       
        25.45001             18.8207               8.6675       
        25.6888              20.0133               8.4277       
        27.20606             22.6397               7.0963       
        29.08327              23.617               5.8464       
        31.09002             23.9791               4.9015       
        33.23523             24.0796               4.1683       
        35.52846             24.0336               3.5844       
        37.97993             23.8786               3.1087       
        39.65432             23.6941               2.8454       
        40.26127             23.5483               2.7596       
        40.42313             23.4121               2.7375       
        40.60054             23.5007               2.9602       
        40.66591             23.5279                2.95        
        41.27286             23.5965               2.8585       
        43.40198              23.512               2.5728       
        46.39671              23.237               2.2463       
        49.59809             22.8483               1.972        
        53.02035             22.3395               1.7381       
        56.67876             21.6788               1.5367       
        60.58959             20.7723               1.3621       
        64.77028             19.4632               1.2104       
        69.23942             17.3383               1.0785       
        74.01695             12.6956              0.96397       
        75.40014             9.64471              0.93502       
        76.55423             3.21458              0.91214       
        76.86198             -4.10506             0.90623       
        77.32361             3.08047               15.066       
        78.4777              9.02096               14.994       
        79.12411             10.3552               14.955       
        81.47337             11.8469               14.817       
        82.72042             9.52342               14.747       
        83.05296             5.52554               14.729       
        83.55178             10.3287               23.173       
        84.58368             14.6493               23.176       
        84.79882             15.2205               23.176       
        90.41995             23.9206               22.422       
        96.65893             29.7628               20.186       
        103.3284             33.4927               16.702       
        110.4581             35.2903               13.035       
        118.0797              35.704               9.8284       
        126.2272             35.2888               7.3068       
        134.9368             34.4492               5.4453       
        144.2475             33.4164               4.1195       
        154.2005             32.2488               3.1919       
        159.9698             31.4171               2.808        
        162.4183             30.7548               2.6703       
        163.0713             30.1621               2.6358       
        164.0507             30.6338               3.6417       
        164.8404             30.8022               3.5977       
        166.4992             30.9145               3.5094       
        176.2144             30.6429               3.0824       
        188.3732             29.9615               2.7103       
        201.3709             29.0378               2.4479       
        202.048              28.9721               2.437        
        205.1405             28.5233                2.39        
        205.9652              28.132               2.3782       
        207.2023             28.4398               3.0481       
        210.2948             28.6015               2.9782       
        215.2655             28.5224               2.8768       
        230.1188             27.9004               2.639        
        245.997              27.0176               2.4705       
        256.0302             26.3471               2.3966       
        259.949              26.0025               2.373        
        260.994              25.8305               2.3671       
        262.5616             25.8246               2.5572       
        262.9708             25.8135               2.5552       
        266.4804             25.6364               2.5393       
        281.1158             24.5672               2.4903       
        289.1658             23.8229               2.4729       
        293.5918              23.306               2.4656       
        294.772              23.0852               2.4639       
        296.5424             22.9742               2.656        
        297.8648             22.8596               2.669        
        300.5128             22.5818               2.6985       
        300.9684             22.5289               2.7041       
        302.424              22.3454               2.7229       
        303.6397             22.1388                2.74        
        305.4634             21.9987               2.9188       
        310.0226             21.5241               3.0429       
        321.2482             20.1342               3.5042       
        343.4143             17.0858               5.364        
        367.1099             14.1668               8.8327       
        392.4405             12.2832               13.853       
        419.5189             12.1882               19.787       
        448.4657             14.1098               25.675       
        479.4098             17.7163               30.651       
         500.0               20.5578               33.072       
         502.5               20.9129               33.319       
        505.0125             21.2708               33.556       
       507.53756             21.6309               33.785       
       510.07525             21.9932               34.006       
       512.62563             22.3573               34.217       
       515.18875             22.7228               34.42        
        517.7647             23.0894               34.614       
       520.35352              23.457               34.799       
       522.95529             23.8251               34.976       
       525.57007             24.1934               35.145       
       528.19792             24.5618               35.304       
       530.83891             24.9299               35.456       
        533.4931             25.2973               35.599       
       536.16057             25.6639               35.734       
       538.84137             26.0293               35.86        
       541.53558             26.3933               35.979       
       544.24325             26.7556               36.09        
       546.96447             27.1159               36.192       
       549.69929             27.4739               36.287       
       552.44779             27.8293               36.375       
       555.21003             28.1819               36.454       
       557.98608             28.5313               36.527       
       560.77601             28.8773               36.592       
       563.57989             29.2195               36.65        
       566.39779             29.5577               36.701       
       569.22978             29.8916               36.745       
       572.07593             30.2207               36.782       
        574.9363             30.5447               36.812       
       577.81099             30.8632               36.836       
       580.70004             31.1758               36.854       
       583.60354             31.4821               36.865       
       586.52156             31.7815               36.871       
       589.45417             32.0734               36.87        
       592.40144             32.3573               36.863       
       595.36345             32.6322               36.851       
       598.34026             32.8975               36.834       
       601.33196             33.1518               36.81        
       604.33862              33.394               36.782       
       607.36032             33.6223               36.749       
       610.39712             33.8345               36.71        
        613.4491             34.0278               36.667       
       616.51635             34.1978               36.619       
       619.59893             34.3407               36.566       
       622.69693             34.4428               36.509       
       625.81041             34.4897               36.447       
       628.93946             34.4485               36.381       
       632.08416             34.2369               36.312       
       635.24458              33.496               36.238       
       636.64076             32.0703               36.204       
       637.35929             32.1221               39.221       
        638.4208             33.5266               39.202       
       641.61291             34.8988               39.142       
       644.82097             35.6393               39.08        
       648.04508             36.1952               39.013       
        651.2853              36.655               38.944       
       654.54173             37.0503               38.872       
       657.81444             37.3935               38.797       
       661.10351             37.6871               38.718       
       664.40903             37.9238               38.638       
       667.73107             38.0795               38.554       
       671.06973             38.0741               38.468       
       674.42508             37.1905               38.38        
        674.518              37.0715               38.377       
       675.28199             37.1469               40.21        
        677.7972             38.5905               40.153       
       681.18619             39.3788               40.075       
       684.59212              39.96                39.995       
       688.01508             40.4583               39.913       
       691.45515             40.9098               39.829       
       694.91243             41.3303               39.743       
       698.38699             41.7282               39.656       
       701.87893             42.1086               39.567       
       705.38832             42.4747               39.476       
       708.91526             42.8287               39.383       
       712.45984             43.1722               39.289       
       716.02214             43.5062               39.193       
       719.60225             43.8317               39.095       
       723.20026             44.1494               38.995       
       726.81626             44.4598               38.894       
       730.45034             44.7635               38.792       
        734.1026             45.0609               38.688       
       737.77311             45.3523               38.583       
       741.46197              45.638               38.477       
       745.16928             45.9184               38.369       
       748.89513             46.1936               38.26        
       752.63961             46.4639               38.15        
        756.4028             46.7291               38.039       
       760.18482             46.9895               37.926       
       763.98574             47.2451               37.812       
       767.80567             47.4959               37.697       
        771.6447             47.7419               37.581       
       775.50292             47.9833               37.464       
       779.38044             48.2201               37.346       
       783.27734             48.4522               37.227       
       787.19373             48.6809               37.107       
       791.12969             48.9038               36.987       
       795.08534             49.1221               36.865       
       799.06077             49.3356               36.743       
       803.05607             49.5445               36.621       
       807.07135             49.7485               36.498       
       811.10671             49.9475               36.374       
       815.16224             50.1415               36.25        
       819.23806             50.3303               36.126       
       823.33425             50.5137               36.001       
       827.45092             50.6914               35.876       
       831.58817              50.863               35.751       
       835.74611             51.0282               35.625       
       839.92484             51.1864               35.499       
       844.12447             51.3369               35.373       
       848.34509             51.4788               35.247       
       852.58682             51.6109               35.121       
       856.84975             51.7315               34.995       
        861.134              51.8383               34.869       
       865.43967             51.9286               34.743       
       869.76687             51.9947               34.616       
        874.1157             52.0225               34.489       
       878.48628             51.9931               34.361       
       882.87871             51.8525               34.233       
        887.2931              51.41                34.106       
       889.19009             50.6616               34.051       
       890.80989             50.7289               36.159       
       891.72957             51.2871               36.133       
       896.18822             52.3436               36.007       
       900.66916             52.8979               35.881       
        905.1725             53.3184               35.756       
       909.69837             53.6747               35.63        
       914.24686             54.0175               35.505       
       918.81809              54.31                35.38        
       923.41218             54.5838               35.255       
       928.02924             54.8434               35.131       
       932.66939             55.0916               35.007       
       937.33274             55.3305               34.883       
        942.0194             55.5617               34.759       
        946.7295             55.7862               34.636       
       951.46315              56.005               34.513       
       956.22046             56.2188               34.391       
       961.00156             56.4283               34.269       
       965.80657             56.6341               34.148       
        970.6356             56.8366               34.027       
       975.48878             57.0363               33.906       
       980.36623             57.2337               33.786       
       985.26806             57.4294               33.666       
        990.1944              57.624               33.547       
       995.14537             57.8185               33.428       
       1000.1211             58.0156               33.31        
       1005.1217             58.2161               33.175       
       1010.1473             58.3998               33.04        
        1015.198              58.576               32.906       
        1020.274              58.747               32.771       
       1025.3754             58.9135               32.636       
       1030.5023             59.0759               32.502       
       1035.6548             59.2341               32.368       
       1040.8331             59.3879               32.234       
       1046.0372             59.5369                32.1        
       1051.2674             59.6805               31.966       
       1056.5238             59.8173               31.833       
       1061.8064             59.9448                31.7        
       1067.1154              60.058               31.567       
        1072.451             60.1425               31.435       
       1077.8132             60.1234                31.3        
       1078.9287             60.0524               31.27        
       1081.0714             60.1242               31.672       
       1083.2023             60.3467               31.615       
       1088.6183             60.6471               31.47        
       1094.0614             60.8712               31.326       
       1099.5317             61.0691               31.182       
       1105.0294             61.2526               31.039       
       1110.5545             61.4267               30.896       
       1116.1073             61.5938               30.753       
       1121.6878             61.7553               30.611       
       1127.2963             61.9122               30.47        
       1132.9328              62.065               30.329       
       1138.5974             62.2145               30.191       
       1144.2904             62.3612               30.048       
       1150.0119             62.5043               29.903       
       1155.7619              62.644               29.758       
       1161.5407             62.7808               29.614       
       1167.3484             62.9146               29.471       
       1173.1852             63.0457               29.328       
       1179.0511             63.1742               29.186       
       1184.9464             63.2995               29.027       
       1190.8711             63.4205               28.864       
       1196.8254             63.5372               28.702       
       1202.8096             63.6497               28.541       
       1208.8236             63.7578               28.381       
       1214.8677             63.8615               28.223       
       1220.9421             63.9598               28.051       
       1227.0468             64.0516               27.878       
        1233.182             64.1359               27.707       
       1239.3479             64.2116               27.537       
       1245.5447             64.2763               27.369       
       1251.7724              64.325               27.201       
       1258.0312             64.3461               27.036       
       1264.3214              64.295               26.872       
       1267.5407             64.1421               26.789       
       1270.4594             64.1962               27.255       
        1270.643             64.2193               27.251       
       1276.9962             64.5829               27.09        
       1283.3812             64.7727               26.93        
       1289.7981             64.9226               26.772       
       1296.2471             65.0532               26.615       
       1302.7283              65.172               26.46        
        1309.242             65.2823               26.305       
       1315.7882             65.3862               26.152       
       1322.3671             65.4849                26.0        
        1328.979             65.5792               25.85        
       1335.6239             65.6698                25.7        
        1342.302             65.7569               25.552       
       1349.0135              65.841               25.405       
       1355.7586             65.9222               25.259       
       1362.5374             66.0009               25.115       
        1369.35              66.0772               24.971       
       1376.1968             66.1514               24.829       
       1383.0778             66.2234               24.688       
       1389.9932             66.2936               24.548       
       1396.9431              66.362               24.409       
       1403.9278             66.4287               24.271       
       1410.9475             66.4937               24.133       
       1418.0022             66.5568               23.996       
       1425.0922             66.6182               23.861       
       1432.2177              66.678               23.726       
       1439.3788             66.7363               23.592       
       1446.5757              66.793               23.459       
       1453.8086             66.8484               23.326       
       1461.0776             66.9023               23.194       
        1468.383             66.9549               23.062       
       1475.7249             67.0061               22.932       
       1483.1035             67.0561               22.803       
        1490.519             67.1049               22.674       
       1497.9716             67.1526               22.547       
       1505.4615             67.1992               22.42        
       1512.9888             67.2442               22.293       
       1520.5537             67.2878               22.166       
       1528.1565             67.3301               22.04        
       1535.7973             67.3711               21.915       
       1543.4763             67.4108               21.791       
       1551.1937             67.4493               21.668       
       1558.9496             67.4865               21.546       
       1566.7444             67.5227               21.424       
       1574.5781             67.5576               21.303       
        1582.451             67.5914               21.182       
       1590.3633             67.6241               21.062       
       1598.3151             67.6556               20.944       
       1606.3066              67.686               20.826       
       1614.3382             67.7154               20.709       
       1622.4099             67.7438               20.593       
       1630.5219             67.7712               20.477       
       1638.6745             67.7975               20.363       
       1646.8679              67.823               20.249       
       1655.1022             67.8474               20.136       
       1663.3777             67.8709               20.024       
       1671.6946             67.8932               19.912       
       1680.0531             67.9146               19.802       
       1688.4534             67.9351               19.692       
       1696.8956             67.9545               19.583       
       1705.3801              67.973               19.474       
        1713.907             67.9906               19.367       
       1722.4766             68.0073               19.26        
       1731.0889              68.023               19.154       
       1739.7444             68.0379               19.049       
       1748.4431             68.0518               18.945       
       1757.1853             68.0649               18.841       
       1765.9712             68.0772               18.738       
       1774.8011             68.0885               18.636       
       1783.6751              68.099               18.535       
       1792.5935             68.1086               18.434       
       1801.5565             68.1174               18.334       
       1810.5642             68.1254               18.235       
       1819.6171             68.1325               18.136       
       1828.7151             68.1388               18.039       
       1837.8587             68.1443               17.942       
        1847.048             68.1489               17.845       
       1856.2833             68.1528               17.75        
       1865.5647             68.1558               17.655       
       1874.8925              68.158               17.561       
        1884.267             68.1594               17.467       
       1893.6883             68.1599               17.374       
       1903.1567             68.1597               17.282       
       1912.6725             68.1562               17.19        
       1922.2359             68.1544                17.1        
       1931.8471             68.1518               17.009       
       1941.5063             68.1484               16.92        
       1951.2138             68.1441               16.831       
       1960.9699             68.1391               16.743       
       1970.7747             68.1333               16.655       
       1980.6286             68.1266               16.568       
       1990.5318             68.1191               16.482       
       2000.4844             68.1108               16.396       
       2010.4868             68.1016               16.311       
       2020.5393             68.0916               16.226       
        2030.642             68.0843               16.143       
       2040.7952             68.0728               16.059       
       2050.9992             68.0603               15.977       
       2061.2542              68.047               15.895       
       2071.5604             68.0329               15.813       
       2081.9182             68.0179               15.732       
       2092.3278              68.002               15.652       
       2102.7895             67.9852               15.572       
       2113.3034             67.9676               15.493       
       2123.8699              67.949               15.414       
       2134.4893             67.9296               15.336       
       2145.1617             67.9092               15.259       
       2155.8875             67.8879               15.182       
        2166.667             67.8721               15.105       
       2177.5003             67.8491               15.028       
       2188.3878             67.8251               14.952       
       2199.3297             67.7999               14.877       
       2210.3264             67.7736               14.801       
        2221.378             67.7463               14.727       
       2232.4849             67.7178               14.653       
       2243.6473             67.6881               14.579       
       2254.8656             67.6573               14.506       
       2266.1399             67.6253               14.434       
       2277.4706             67.5921               14.362       
       2288.8579             67.5576               14.29        
       2300.3022             67.5219               14.219       
       2311.8037             67.4849               14.149       
       2323.3628             67.4466               14.079       
       2334.9796              67.407               14.009       
       2346.6545              67.366               13.94        
       2358.3878             67.3235               13.871       
       2370.1797             67.2797               13.803       
       2382.0306             67.2343               13.736       
       2393.9407             67.1874               13.669       
       2405.9104              67.139               13.602       
        2417.94              67.0889               13.536       
       2430.0297             67.0372               13.47        
       2442.1798             66.9838               13.405       
       2454.3907             66.9287               13.34        
       2466.6627             66.8717               13.275       
        2478.996             66.8128               13.211       
        2491.391             66.7521               13.148       
       2503.8479             66.6893               13.085       
       2516.3672             66.6245               13.022       
        2528.949             66.5575               12.96        
       2541.5938             66.4858               12.898       
       2554.3017             66.4144               12.833       
       2567.0732              66.34                12.764       
       2579.9086             66.2626               12.696       
       2592.8082             66.1819               12.629       
       2605.7722              66.098               12.562       
       2618.8011             66.0107               12.496       
       2631.8951             65.9198               12.43        
       2645.0545             65.8253               12.364       
       2658.2798             65.7269               12.299       
       2671.5712             65.6183               12.234       
       2684.9291             65.5116               12.17        
       2698.3537             65.4006               12.106       
       2711.8455             65.2848               12.039       
       2725.4047             65.1638               11.972       
       2739.0317             65.0374               11.905       
       2752.7269             64.9053               11.839       
       2766.4905             64.7671               11.773       
        2780.323             64.6226               11.707       
       2794.2246             64.4713               11.642       
       2808.1957             64.3129               11.578       
       2822.2367             64.1468               11.514       
       2836.3479             63.9726               11.45        
       2850.5296             63.7897               11.387       
       2864.7823             63.5974               11.324       
       2879.1062             63.3951               11.262       
       2893.5017              63.182                11.2        
       2907.9692             62.9571               11.139       
       2922.5091             62.7195               11.078       
       2937.1216             62.4682               11.017       
       2951.8072             62.2019               10.957       
       2966.5662             61.9195               10.897       
       2981.3991             61.6199               10.838       
       2996.3061             61.3048               10.779       
       3011.2876              60.955               10.703       
        3026.344             60.5592               10.621       
       3041.4758             60.1236               10.539       
       3056.6831             59.6434               10.459       
       3071.9666             59.1109               10.379       
       3087.3264             58.5155               10.299       
        3102.763             57.8426               10.221       
       3118.2768             57.0708               10.143       
       3133.8682             56.1683               10.066       
       3149.5376             55.0837               9.9892       
       3165.2853             53.7253               9.9134       
       3181.1117             51.9045               9.8384       
       3197.0172             49.1126               9.764        
       3213.0023             42.5973               9.6903       
       3218.0698              33.365               9.6672       
       3219.9304              33.107               25.185       
       3229.0673             44.8301               25.065       
       3245.2127             49.3765               24.857       
       3261.4387             51.4897               24.65        
       3277.7459             52.7388               24.445       
       3294.1347             53.4846               24.242       
       3310.6053             53.8354               24.041       
       3327.1584             53.7733               23.841       
       3343.7941             53.0984               23.644       
       3360.5131             50.7847               23.448       
       3369.1316             44.4946               23.348       
       3371.2683             44.4122               32.752       
       3377.3157             50.3172               32.686       
       3394.2023              54.53                32.506       
       3411.1733             56.6534               32.327       
       3428.2291             58.1776               32.149       
       3445.3703             59.4012               31.974       
       3462.5971             60.4392                31.8        
       3479.9101             61.3498               31.627       
       3497.3097             62.1674               31.457       
       3514.7962             62.9154               31.288       
       3532.3702             63.6126               31.12        
       3550.0321              64.267               30.914       
       3567.7822             64.8624               30.695       
       3585.6211             65.4084               30.473       
       3603.5492             65.9117               30.25        
        3621.567             66.3767               30.026       
       3639.6748             66.8065               29.801       
       3657.8732             67.2032               29.575       
       3676.1626             67.5681               29.349       
       3694.5434              67.902               29.122       
       3713.0161             68.2049               28.894       
       3731.5812             68.4759               28.666       
       3750.2391             68.7134               28.438       
       3768.9903             68.9142               28.21        
       3787.8352             69.0734               27.982       
       3806.7744             69.1825               27.754       
       3825.8083             69.2273               27.527       
       3844.9373             69.1815               27.299       
        3864.162             68.9886               27.073       
       3883.4828             68.4912               26.846       
       3902.9002             66.7518               26.621       
       3904.0746             66.4653               26.607       
       3913.9253             66.5373               30.96        
       3922.4147             68.0869               30.857       
       3942.0268             69.6429               30.62        
       3961.7369             70.5704               30.384       
       3981.5456             71.2747               30.149       
       4001.4533              71.86                29.915       
       4021.4606             72.3694               29.683       
       4041.5679              72.825               29.452       
       4061.7757             73.2399               29.222       
       4082.0846             73.6222               28.993       
        4102.495             73.9779               28.766       
       4123.0075             74.3107               28.538       
       4143.6226              74.623               28.313       
       4164.3407             74.9174               28.088       
       4185.1624              75.196               27.865       
       4206.0882             75.4589               27.639       
       4227.1186              75.707               27.414       
       4248.2542             75.9412               27.19        
       4269.4955             76.1625               26.969       
        4290.843             76.3714               26.749       
       4312.2972             76.5684               26.53        
       4333.8587             76.7539               26.314       
        4355.528              76.928               26.099       
       4377.3056             77.0909               25.887       
       4399.1921             77.2429               25.678       
       4421.1881             77.3842               25.472       
        4443.294             77.5143               25.267       
       4465.5105             77.6325               25.065       
       4487.8381             77.7375               24.864       
       4510.2772             77.8276               24.664       
       4532.8286             77.8997               24.467       
       4555.4928             77.9492               24.271       
       4578.2702             77.9671               24.077       
       4601.1616             77.9352               23.885       
       4624.1674             77.8034               23.694       
       4647.2882             77.3019               23.505       
       4648.9696              77.207               23.491       
       4663.0307             77.2566               24.902       
       4670.5247             77.6476               24.841       
       4693.8773             78.2289               24.652       
       4717.3467             78.5728               24.464       
       4740.9334             78.8341               24.278       
       4764.6381             79.0506               24.094       
       4788.4613             79.2369               23.911       
       4812.4036               79.4                23.73        
       4836.4656             79.5434               23.55        
       4860.6479             79.6681               23.373       
       4884.9512             79.7736               23.196       
       4909.3759             79.8567               23.022       
       4933.9228             79.9097               22.849       
       4958.5924             79.9121               22.678       
       4983.3854             79.7849               22.509       
       4990.9955             79.6615               22.457       
       5008.3023             79.5717               23.324       
       5013.0043             79.7706               23.292       
       5033.3438              80.202               23.157       
       5058.5105             80.5108               22.992       
       5083.8031             80.7472               22.828       
       5109.2221             80.9486               22.664       
       5134.7682             81.1283               22.501       
       5160.4421             81.2929               22.339       
       5186.2443             81.4461               22.178       
       5212.1755             81.5903               22.019       
       5238.2364              81.727               21.862       
       5264.4276             81.8575               21.705       
       5290.7497              81.982               21.549       
       5317.2034             82.1013               21.394       
       5343.7895             82.2159               21.241       
       5370.5084             82.3263               21.089       
       5397.3609             82.4328               20.938       
       5424.3477             82.5357               20.788       
       5451.4695             82.6352               20.64        
       5478.7268             82.7316               20.493       
       5506.1205             82.8251               20.347       
       5533.6511             82.9158               20.201       
       5561.3193             83.0039               20.057       
       5589.1259             83.0894               19.914       
       5617.0716             83.1726               19.771       
       5645.1569             83.2534               19.63        
       5673.3827             83.3321               19.49        
       5701.7496             83.4087               19.352       
       5730.2584             83.4832               19.214       
       5758.9096             83.5559               19.077       
       5787.7042             83.6267               18.941       
       5816.6427             83.6957               18.806       
       5845.7259             83.7631               18.672       
       5874.9546             83.8288               18.54        
       5904.3293              83.893               18.408       
        5933.851             83.9557               18.278       
       5963.5202              84.017               18.148       
       5993.3378              84.077               18.02        
       6023.3045             84.1358               17.893       
        6053.421             84.1935               17.766       
       6083.6882             84.2497               17.639       
       6114.1066             84.3044               17.513       
       6144.6771             84.3576               17.388       
       6175.4005             84.4094               17.263       
       6206.2775              84.46                17.14        
       6237.3089             84.5093               17.018       
       6268.4954             84.5574               16.897       
       6299.8379             84.6043               16.776       
       6331.3371             84.6502               16.657       
       6362.9938              84.695               16.538       
       6394.8088             84.7388               16.421       
       6426.7828             84.7816               16.304       
       6458.9167             84.9702               16.186       
       6491.2113             85.0108               16.068       
       6523.6674             85.0501               15.951       
       6556.2857             85.0883               15.834       
       6589.0671             85.1253               15.719       
       6622.0125             85.1611               15.604       
       6655.1225             85.1959               15.49        
       6688.3981             85.2297               15.378       
       6721.8401             85.2626               15.266       
       6755.4493             85.4012               15.153       
       6789.2266              85.432               15.04        
       6823.1727             85.4616               14.928       
       6857.2886             85.4901               14.816       
        6891.575             85.5174               14.706       
       6926.0329             85.5437               14.597       
       6960.6631             85.5689               14.488       
       6995.4664             85.5932               14.381       
       7030.4437             85.6165               14.274       
       7065.5959              85.639               14.168       
       7100.9239             85.6606               14.063       
       7136.4285             85.6813               13.96        
       7172.1107             85.7012               13.856       
       7207.9712             85.7204               13.754       
       7244.0111             85.7388               13.653       
       7280.2311             85.7565               13.552       
       7316.6323             85.7734               13.453       
       7353.2155             85.7897               13.354       
       7389.9815             85.8054               13.256       
       7426.9314             85.8204               13.159       
       7464.0661             85.8347               13.063       
       7501.3864             85.8485               12.967       
       7538.8934             85.8618               12.873       
       7576.5878             85.8744               12.779       
       7614.4708             85.8866               12.686       
       7652.5431             85.8982               12.594       
       7690.8058             85.9094               12.502       
       7729.2599              85.92                12.412       
       7767.9062             85.9303               12.322       
       7806.7457             85.9401               12.232       
       7845.7794             86.0405               12.143       
       7885.0083             86.0497               12.053       
       7924.4334             86.0582               11.965       
       7964.0555             86.0662               11.877       
       8003.8758             86.0737               11.79        
       8043.8952             86.0807               11.703       
       8084.1147             86.0873               11.618       
       8124.5352             86.0934               11.533       
       8165.1579             86.0991               11.449       
       8205.9837             86.1044               11.365       
       8247.0136             86.1094               11.283       
       8288.2487              86.114               11.201       
       8329.6899             86.1183               11.119       
       8371.3384             86.1224               11.039       
       8413.1951             86.1262               10.959       
        8455.261             86.1299               10.879       
       8497.5373             86.1334               10.801       
        8540.025             86.1368               10.723       
        9030.794             86.2298               9.8603       
        9653.919             86.1994               8.8228       
        10320.04              86.025               7.8971       
        11032.12             85.7468               7.0763       
        11793.34             85.3853               6.351        
        12607.08             84.9223               5.7054       
        13476.97             84.3009               5.1303       
        14406.88             83.3587               4.6144       
        15400.95             81.2584               4.1462       
        15553.58             80.5389               4.0817       
        15791.65             77.9818               3.9846       
        15855.13             74.9735               3.9594       
        15950.36             77.9733               9.8111       
        16188.42             80.6378               9.5811       
        16463.62             81.8116               9.3265       
        17599.61             83.4273               8.3371       
        18701.54             82.9309               7.5063       
        18813.98             82.6417               7.4287       
        18987.78             81.7056               7.3111       
        19064.12             80.1855               7.2604       
        19178.62              81.707               10.179       
        19443.2              82.9316               9.956        
        19464.86             82.9754               9.9381       
        19740.8              83.0354               9.7148       
        19820.16              82.422               9.6521       
        19939.2              83.3853               11.06        
        20112.15             84.1382               10.919       
        20236.8              84.4903               10.818       
        21499.88             86.3479               9.8611       
        22983.38             87.4007               8.8862       
        24569.23             88.0633               8.0074       
        26264.5              88.5179               7.2189       
        28076.76             88.8544               6.4683       
        30014.05             89.0513               5.788        
        32085.02             89.2282               5.1815       
        34298.89             89.2867               4.6315       
        36665.51             89.3029               4.1441       
        39195.43              89.328               3.7081       
        41899.92             89.3195               3.3067       
        44791.01              89.262               2.9491       
        47881.59             89.1902               2.6322       
        51185.42             89.1089               2.3512       
        54717.21             89.0209               2.1017       
        58492.7              88.9277               1.8802       
        62528.7               88.83                1.6832       
        66843.18             88.7272               1.508        
        71455.36             88.6177               1.3506       
        76385.78             88.4967               1.2095       
        81656.4              88.3607               1.0812       
        87290.69              88.188              0.95963       
        93313.74              87.943              0.85031       
        99752.39             87.5154               0.754        
        104620.2             86.7083              0.69228       
        106221.5             85.7166              0.67374       
        106635.3             84.6176              0.66908       
        106648.5             84.5308              0.66893       
        107289.1             85.7662               2.9949       
        108890.4              86.846               2.9272       
        113993.1             87.8237               2.7264       
        121858.7             88.3964               2.4567       
        130266.9             88.7071               2.2109       
        139255.3             88.9025               1.9891       
        148864.0              89.033               1.7894       
        159135.6              89.122               1.6081       
        170115.9             89.1812               1.4447       
        181853.9             89.2198               1.2979       
        194401.8             89.2436               1.1661       
        207815.6             89.2565               1.0478       
        222154.8             89.2614              0.94169       
        237483.5             89.2607               0.847        
        253869.9              89.256              0.76192       
        271386.9             89.2485              0.68547       
        290112.6             89.2389              0.61676       
        310130.4              89.228               0.555        
        331529.4             89.2162              0.49947       
        354404.9              89.204              0.44955       
        378858.8             89.1916              0.40465       
        405000.1             89.1792              0.36428       
        432945.1             89.1671              0.32796       
