# As
# Form Factors from Chantler Tables
# DOI: https://dx.doi.org/10.18434/T4HS32
# automatically retrived 2019-02-27 using URL https://physics.nist.gov/cgi-bin/ffast/ffast.pl
#
# Z = 33
# f_rel = -0.19087 e/atom  (Relativistic correction estimate)
# f_NT = -0.0079737 e/atom (Nuclear Thomson correction)


#        E (eV)            f1 (e/atom)          f2 (e/atom)     
         10.69               5.97388                0.0         
        11.42761             5.95892                0.0         
        12.21612             5.94172                0.0         
        13.05903             5.92193                0.0         
        13.9601              5.89914                0.0         
        14.92335             5.87286                0.0         
        15.95306             5.84252                0.0         
        17.05382             5.80742                0.0         
        18.23053             5.76673                0.0         
        19.48844             5.71947                0.0         
        20.83314             5.66438                0.0         
        22.27063             5.59995                0.0         
        23.8073              5.52424                0.0         
        25.45001             5.43479                0.0         
        27.20606             5.32828                0.0         
        29.08327             5.20019                0.0         
        31.09002             5.04396                0.0         
        33.23523             4.84923                0.0         
        35.52846             4.59747                0.0         
        37.97993             4.24541                0.0         
         40.376              3.66212                0.0         
        40.60054             3.56057                0.0         
         40.994              3.26814                0.0         
        41.1588              2.89512                0.0         
         41.406              3.18075              0.67799       
         42.024              3.36584              0.72651       
        43.40198             3.36274              0.84453       
        46.39671             3.13444               1.1515       
        49.59809             2.84875               1.5444       
        53.02035             2.55769               2.0278       
        56.67876             2.28864               2.6072       
        60.58959             2.06592               3.2835       
        64.77028              1.9131               4.0522       
        69.23942             1.85256               4.9031       
        74.01695              1.9041               5.8203       
        79.12411             2.08345               6.7827       
        84.58368             2.40093               7.7653       
        90.41995             2.86035               8.7406       
        96.65893             3.45832               9.6801       
        103.3284             4.18397               10.556       
        110.4581             5.01853               11.345       
        118.0797             5.93419               12.024       
        126.2272             6.88034               12.577       
        134.9368             7.77925               12.994       
         137.69              7.98349               13.092       
        139.7975             7.99944               13.158       
        140.3595             7.81981               13.174       
        141.2025             8.12885               13.658       
         143.31              8.52176               13.733       
        143.472              8.54386               13.739       
        144.2475             8.64108               13.765       
        145.668              8.77001               13.809       
        146.2536             8.74386               13.827       
        147.132              8.95813               14.057       
        149.328              9.32082               14.127       
        154.2005             9.96447               14.262       
        164.8404             11.2098               14.463       
        176.2144             12.4105               14.537       
        188.3732             13.5313               14.477       
         199.43              14.2923               14.33        
        201.3709              14.335               14.297       
        202.4825             14.2878               14.278       
        203.2965             14.0489               14.263       
        204.5175              14.454               14.839       
         207.57               14.965               14.787       
        215.2655             15.7674               14.637       
        230.1188             16.9797               14.296       
        245.997              18.0578               13.877       
        262.9708             19.0331               13.395       
        281.1158              19.913               12.864       
        300.5128             20.7016               12.298       
        321.2482             21.4026               11.708       
        343.4143             22.0202               11.107       
        367.1099              22.559               10.502       
        392.4405              23.024               9.901        
        419.5189             23.4203               9.3104       
        448.4657             23.7497               8.7349       
        479.4098             24.0227               8.1779       
        512.4891             24.2405               7.6422       
        547.8508             24.4063               7.1294       
        585.6525             24.5228               6.6402       
        626.0625             24.5907               6.1736       
        669.2609             24.6075               5.7303       
        715.4399             24.5717               5.3113       
        764.8052             24.4792               4.9173       
        817.5768              24.318               4.5204       
        873.9896             24.0651               4.1474       
         900.0               24.4656               3.9929       
         904.5               24.4435               3.9672       
        909.0225             24.4209               3.9416       
       913.56761             24.3978               3.9163       
       918.13545             24.3741               3.891        
       922.72613             24.3499               3.866        
       927.33976              24.325               3.8411       
       931.97646             24.2997               3.8164       
       936.63634             24.2737               3.7919       
       941.31952             24.2472               3.7675       
       946.02612             24.2202               3.7432       
       950.75625             24.1925               3.7192       
       955.51003             24.1643               3.6953       
       960.28758             24.1355               3.6715       
       965.08902             24.1062               3.648        
       969.91446             24.0763               3.6245       
       974.76404             24.0458               3.6013       
       979.63786             24.0149               3.5782       
       984.53605             23.9834               3.5552       
       989.45873             23.9515               3.5325       
       994.40602             23.9192               3.5098       
       999.37805             23.8865               3.4874       
       1004.3749             23.8509               3.4595       
       1009.3968             23.8095               3.4312       
       1014.4438             23.7656               3.403        
        1019.516             23.7197               3.3752       
       1024.6136             23.6722               3.3476       
       1029.7367             23.6231               3.3203       
       1034.8853             23.5725               3.2932       
       1040.0598             23.5201               3.2664       
       1045.2601             23.4662               3.2399       
       1050.4864             23.4105               3.2135       
       1055.7388             23.3531               3.1875       
       1061.0175             23.2939               3.1616       
       1066.3226             23.2327               3.136        
       1071.6542             23.1696               3.1107       
       1077.0125             23.1045               3.0856       
       1082.3975             23.0371               3.0607       
       1087.8095             22.9676               3.036        
       1093.2486             22.8956               3.0116       
       1098.7148             22.8212               2.9874       
       1104.2084             22.7442               2.9634       
       1109.7294             22.6644               2.9397       
       1115.2781             22.5817               2.9161       
       1120.8545             22.4959               2.8928       
       1126.4587             22.4069               2.8697       
        1132.091             22.3144               2.8468       
       1137.7515             22.2182               2.8241       
       1143.4402              22.118               2.8016       
       1149.1574             22.0137               2.7794       
       1154.9032             21.9049               2.7573       
       1160.6777             21.7912               2.7354       
       1166.4811             21.6724               2.7137       
       1172.3135             21.5479               2.6923       
       1178.1751             21.4173               2.671        
        1184.066             21.2802               2.6499       
       1189.9863             21.1358               2.629        
       1195.9362             20.9834               2.6083       
       1201.9159             20.8225               2.5878       
       1207.9255             20.6519               2.5674       
       1213.9651             20.4706               2.5473       
        1220.035             20.2775               2.5273       
       1226.1351             20.0709               2.5075       
       1232.2658             19.8492               2.4879       
       1238.4271             19.6102               2.4685       
       1244.6193             19.3513               2.4492       
       1250.8424             19.0692               2.4301       
       1257.0966             18.7596               2.4112       
       1263.3821             18.4174               2.3925       
        1269.699             18.0351               2.3739       
       1276.0475             17.6029               2.3555       
       1282.4277             17.1067               2.3372       
       1288.8399             16.5252               2.3191       
        1295.284             15.8238               2.3012       
       1301.7605             14.9407               2.2834       
       1308.2693             13.7469               2.2658       
       1314.8106             11.8809               2.2483       
       1321.3847             7.00551               2.231        
       1322.9793             -1.02828              2.2269       
       1323.2206             -1.19194              11.702       
       1327.9916             9.86152               11.634       
       1334.6316             12.1906               11.541       
       1341.3047             13.1749               11.449       
       1348.0112              13.477               11.357       
       1354.7513             12.7785               11.267       
       1358.4739             8.07519               11.217       
       1358.7261             8.02227               15.893       
        1361.525             12.9746               15.841       
       1368.3327             15.3326               15.714       
       1375.1743             16.6108               15.589       
       1382.0502              17.552               15.465       
       1388.9605             18.3128               15.342       
       1395.9053             18.9565               15.22        
       1402.8848             19.5156               15.099       
       1409.8992              20.01                14.979       
       1416.9487             20.4522               14.86        
       1424.0335              20.851               14.742       
       1431.1536             21.2128               14.625       
       1438.3094             21.5421               14.508       
       1445.5009             21.8422               14.393       
       1452.7284             22.1155               14.279       
       1459.9921             22.3634               14.165       
        1467.292             22.5867               14.053       
       1474.6285              22.785               13.941       
       1482.0016             22.9569               13.83        
       1489.4117              23.099               13.72        
       1496.8587             23.2045               13.612       
        1504.343             23.2595               13.503       
       1511.8647             23.2307               13.396       
        1519.424             23.0055               13.29        
       1525.1383             22.1676               13.211       
       1527.0212             21.6078               15.08        
       1527.8616             22.2101               15.068       
       1534.6563              23.467               14.969       
       1542.3295             24.0566               14.858       
       1550.0412             24.4774               14.748       
       1557.7914             24.8232               14.639       
       1565.5804             25.1247               14.531       
       1573.4083             25.3961               14.424       
       1581.2753             25.6449               14.318       
       1589.1817              25.876               14.212       
       1597.1276             26.0924               14.108       
       1605.1132             26.2963               14.004       
       1613.1388             26.4898               13.902       
       1621.2045             26.6742               13.801       
       1629.3105             26.8504               13.701       
       1637.4571             27.0193               13.601       
       1645.6443             27.1815               13.502       
       1653.8726             27.3375               13.404       
       1662.1419             27.4878               13.307       
       1670.4526             27.6329               13.211       
       1678.8049             27.7732               13.115       
       1687.1989             27.9088               13.021       
       1695.6349             28.0403               12.927       
       1704.1131             28.1678               12.833       
       1712.6337             28.2917               12.741       
       1721.1968             28.4121               12.649       
       1729.8028             28.5289               12.557       
       1738.4518             28.6423               12.465       
       1747.1441             28.7524               12.374       
       1755.8798             28.8595               12.284       
       1764.6592             28.9637               12.194       
       1773.4825              29.065               12.104       
       1782.3499             29.1635               12.015       
       1791.2617             29.2593               11.927       
        1800.218             29.3525               11.839       
       1809.2191             29.4432               11.752       
       1818.2652             29.5316               11.666       
       1827.3565             29.6177               11.58        
       1836.4933             29.7016               11.495       
       1845.6757             29.7834               11.411       
       1854.9041             29.8632               11.327       
       1864.1786             29.9411               11.244       
       1873.4995             30.0171               11.162       
        1882.867             30.0913               11.08        
       1892.2814             30.1637               10.998       
       1901.7428             30.2345               10.918       
       1911.2515             30.3037               10.838       
       1920.8077             30.3712               10.758       
       1930.4118             30.4373               10.679       
       1940.0638              30.502               10.601       
       1949.7642             30.5652               10.523       
        1959.513             30.6271               10.446       
       1969.3105             30.6878               10.37        
       1979.1571             30.7473               10.294       
       1989.0529             30.8056               10.218       
       1998.9981             30.8624               10.141       
       2008.9931             30.9178               10.066       
       2019.0381             30.9719               9.9906       
       2029.1333             31.0246               9.9161       
        2039.279             31.0762               9.8421       
       2049.4754             31.1265               9.7686       
       2059.7227             31.1757               9.6957       
       2070.0213             31.2237               9.6233       
       2080.3714             31.2706               9.5514       
       2090.7733             31.3165               9.4801       
       2101.2272             31.3613               9.4093       
       2111.7333             31.4051               9.339        
        2122.292             31.4479               9.2692       
       2132.9034             31.4898               9.1999       
        2143.568             31.5308               9.1311       
       2154.2858             31.5708               9.0628       
       2165.0572             31.6099               8.9951       
       2175.8825             31.6482               8.9278       
       2186.7619             31.6856               8.861        
       2197.6957             31.7222               8.7947       
       2208.6842              31.758               8.7289       
       2219.7276              31.793               8.6636       
       2230.8263             31.8272               8.5988       
       2241.9804             31.8607               8.5344       
       2253.1903             31.8935               8.4705       
       2264.4562             31.9255               8.4071       
       2275.7785             31.9569               8.3442       
       2287.1574             31.9875               8.2817       
       2298.5932             32.0175               8.2197       
       2310.0862             32.0468               8.1582       
       2321.6366             32.0755               8.0971       
       2333.2448             32.1036               8.0365       
        2344.911             32.1311               7.9763       
       2356.6356              32.158               7.9166       
       2368.4187             32.1843               7.8574       
       2380.2608              32.21                7.7985       
       2392.1621             32.2352               7.7402       
        2404.123             32.2598               7.6822       
       2416.1436              32.284               7.6247       
       2428.2243             32.3076               7.5677       
       2440.3654             32.3307               7.511        
       2452.5672             32.3533               7.4548       
       2464.8301             32.3754               7.3991       
       2477.1542             32.3971               7.3437       
        2489.54              32.4184               7.2888       
       2501.9877             32.4392               7.2343       
       2514.4976             32.4595               7.1802       
       2527.0701             32.4795               7.1265       
       2539.7055              32.499               7.0732       
        2552.404             32.5182               7.0204       
        2565.166              32.537               6.9679       
       2577.9919             32.5554               6.9159       
       2590.8818             32.5735               6.8642       
       2603.8362             32.5912               6.813        
       2616.8554             32.6086               6.7621       
       2629.9397             32.6257               6.7117       
       2643.0894             32.6425               6.6614       
       2656.3048             32.7635               6.6101       
       2669.5863             32.7794               6.559        
       2682.9343             32.7949               6.5082       
       2696.3489             32.8099               6.4579       
       2709.8307             32.8246               6.408        
       2723.3798             32.8894               6.3581       
       2736.9967             32.9031               6.3083       
       2750.6817             32.9164               6.2589       
       2764.4351             32.9293               6.2096       
       2778.2573             32.9418               6.1607       
       2792.1486             32.9538               6.1122       
       2806.1093             32.9656               6.0642       
       2820.1399             32.9769               6.0165       
       2834.2406              32.988               5.9692       
       2848.4118             32.9987               5.9223       
       2862.6539             33.0091               5.8757       
       2876.9671             33.0192               5.8296       
        2891.352              33.029               5.7838       
       2905.8087             33.0386               5.7385       
       2920.3378             33.0479               5.6935       
       2934.9394              33.057               5.6489       
       2949.6141             33.0659               5.6046       
       2964.3622             33.0747               5.5607       
        2979.184             33.0835               5.5172       
       2994.0799              33.094               5.4741       
       3009.0503             33.1145               5.4288       
       3024.0956             33.1264               5.3822       
       3039.2161             33.1367               5.336        
       3054.4122             33.1882               5.2902       
       3069.6842             33.1966               5.2439       
       3085.0326             33.2041               5.1979       
       3100.4578             33.2109               5.1524       
       3115.9601             33.2171               5.1074       
       3131.5399             33.2227               5.0627       
       3147.1976             33.2278               5.0184       
       3162.9336             33.2325               4.9746       
       3178.7482             33.2366               4.9312       
        3194.642             33.2404               4.8882       
       3210.6152             33.2438               4.8455       
       3226.6683             33.2468               4.8033       
       3242.8016             33.2495               4.7615       
       3259.0156             33.2518                4.72        
       3275.3107             33.2539               4.6789       
       3291.6873             33.2556               4.6383       
       3308.1457              33.257               4.598        
       3324.6864             33.2582               4.558        
       3341.3099             33.2591               4.5184       
       3358.0164             33.2598               4.4792       
       3374.8065             33.2602               4.4404       
       3391.6805             33.2604               4.4019       
       3408.6389             33.2603               4.3638       
       3425.6821              33.26                4.326        
       3442.8105             33.2596               4.2886       
       3460.0246             33.2589               4.2515       
       3477.3247              33.258               4.2148       
       3494.7113              33.257               4.1784       
       3512.1849             33.2557               4.1423       
       3529.7458             33.2543               4.1066       
       3547.3945             33.2527               4.0712       
       3565.1315              33.251               4.0361       
       3582.9572              33.249               4.0013       
       3600.8719              33.247               3.9669       
       3618.8763             33.2447               3.9328       
       3636.9707             33.2424               3.8989       
       3655.1555             33.2399               3.8654       
       3673.4313             33.2372               3.8323       
       3691.7985             33.2344               3.7994       
       3710.2575             33.2315               3.7668       
       3728.8088             33.2285               3.7345       
       3747.4528             33.2254               3.7025       
       3766.1901             33.2221               3.6708       
        3785.021             33.2187               3.6394       
       3803.9461             33.2152               3.6083       
       3822.9659             33.2116               3.5774       
       3842.0807             33.2079               3.5468       
       3861.2911             33.2041               3.5164       
       3880.5975             33.2002               3.4862       
       3900.0005             33.1962               3.4564       
       3919.5005             33.1921               3.4268       
        3939.098             33.1879               3.3975       
       3958.7935             33.1836               3.3685       
       3978.5875             33.1792               3.3397       
       3998.4804             33.1748               3.3112       
       4018.4728             33.1702               3.283        
       4038.5652             33.1656               3.255        
        4058.758             33.1609               3.2273       
       4079.0518             33.1561               3.1998       
       4099.4471             33.1513               3.1726       
       4119.9443             33.1464               3.1456       
        4140.544             33.1414               3.1188       
       4161.2467             33.1363               3.0923       
        4182.053             33.1312               3.0661       
       4202.9632              33.126               3.0401       
       4223.9781             33.1208               3.0143       
        4245.098             33.1155               2.9888       
       4266.3234             33.1101               2.9634       
       4287.6551             33.1047               2.9384       
       4309.0933             33.0992               2.9135       
       4330.6388             33.0937               2.8889       
        4352.292             33.0881               2.8645       
       4374.0535             33.0825               2.8403       
       4395.9237             33.0768               2.8163       
       4417.9033             33.0711               2.7925       
       4439.9929             33.0654               2.769        
       4462.1928             33.0596               2.7457       
       4484.5038             33.0538               2.7226       
       4506.9263             33.0479               2.6996       
       4529.4609              33.042               2.6769       
       4552.1082              33.036               2.6544       
       4574.8688              33.03                2.6322       
       4597.7431              33.024               2.6101       
       4620.7318             33.0179               2.5882       
       4643.8355             33.0119               2.5665       
       4667.0547             33.0057               2.545        
        4690.39              32.9996               2.5237       
       4713.8419             32.9934               2.5025       
       4737.4111             32.9872               2.4816       
       4761.0982              32.981               2.4609       
       4784.9037             32.9747               2.4403       
       4808.8282             32.9685               2.4199       
       4832.8723             32.9622               2.3998       
       4857.0367             32.9558               2.3797       
       4881.3219             32.9495               2.3599       
       4905.7285             32.9431               2.3403       
       4930.2571             32.9367               2.3208       
       4954.9084             32.9303               2.3015       
       4979.6829             32.9239               2.2824       
       5004.5814             32.9174               2.2634       
       5029.6043              32.911               2.2446       
       5054.7523             32.9045               2.226        
        5080.026              32.898               2.2075       
       5105.4262             32.8915               2.1893       
       5130.9533              32.885               2.1711       
       5156.6081             32.8785               2.1532       
       5182.3911             32.8719               2.1354       
       5208.3031             32.8654               2.1177       
       5234.3446             32.8588               2.1002       
       5260.5163             32.8522               2.0829       
       5286.8189             32.8457               2.0657       
        5313.253             32.8391               2.0487       
       5339.8192             32.8325               2.0318       
       5366.5183             32.8259               2.0151       
       5393.3509             32.8193               1.9985       
       5420.3177             32.8127               1.9821       
       5447.4193              32.806               1.9658       
       5474.6564             32.7994               1.9496       
       5502.0297             32.7928               1.9336       
       5529.5398             32.7862               1.9178       
       5557.1875             32.7796               1.9021       
       5584.9734             32.7729               1.8865       
       5612.8983             32.7663               1.8711       
       5640.9628             32.7597               1.8558       
       5669.1676             32.7531               1.8406       
       5697.5135             32.7465               1.8255       
        5726.001             32.7399               1.8106       
        5754.631             32.7333               1.7954       
       5783.4042             32.7267               1.7802       
       5812.3212              32.72                1.7651       
       5841.3828             32.7133               1.7501       
       5870.5897             32.7066               1.7353       
       5899.9427             32.6998               1.7204       
       5929.4424              32.693               1.7056       
       5959.0896             32.6861               1.6908       
        5988.885             32.6792               1.6763       
       6018.8295             32.6722               1.6618       
       6048.9236             32.6652               1.6475       
       6079.1682             32.6582               1.6333       
       6109.5641             32.6511               1.6193       
       6140.1119             32.6439               1.6054       
       6170.8125             32.6368               1.5916       
       6201.6665             32.6296               1.578        
       6232.6749             32.6223               1.5645       
       6263.8382             32.6151               1.5511       
       6295.1574             32.6078               1.5378       
       6326.6332             32.6004               1.5247       
       6358.2664             32.5931               1.5117       
       6390.0577             32.5857               1.4988       
        6422.008             32.5783               1.486        
        6454.118             32.5708               1.4734       
       6486.3886             32.5634               1.4608       
       6518.8206             32.5559               1.4484       
       6551.4147             32.5484               1.4361       
       6584.1717             32.5408               1.4239       
        6915.365             32.4812               1.3052       
        7392.525             32.3657               1.1599       
        7902.609             32.2394               1.0317       
        8447.89              32.0983               0.9186       
        9030.794             31.9351              0.81573       
        9653.919              31.721              0.71576       
        10320.04             31.4141              0.62865       
        11032.12             30.8756              0.55267       
        11629.37             29.6992              0.49952       
        11793.34             28.5199              0.48634       
        11807.37             28.3012              0.48523       
        11854.83             26.6121              0.48153       
        11926.03             28.3415               3.8077       
        12104.03             29.9049               3.691        
        12607.08             31.1969               3.4005       
        13476.97             32.0334               3.0358       
        14406.88             32.4817               2.7327       
        15400.95             32.7814               2.4677       
        16463.62              32.993               2.2092       
        17599.61             33.1366               1.9737       
        18813.98             33.2347               1.7605       
        20112.15             33.3002               1.5688       
        21499.88             33.3421               1.3973       
        22983.38             33.3674               1.2448       
        24569.23             33.4162               1.1074       
        26264.5              33.4187              0.98363       
        28076.76             33.4175              0.86938       
        30014.05             33.4061              0.76708       
        32085.02             33.3899              0.67685       
        34298.89              33.371              0.59696       
        36665.51             33.3504              0.52646       
        39195.43              33.329              0.46432       
        41899.92             33.3075              0.40953       
        44791.01             33.2864              0.36124       
        47881.59             33.2661              0.31866       
        51185.42             33.2468              0.28111       
        54717.21             33.2282              0.24662       
        58492.7              33.2101              0.21628       
        62528.7              33.1928              0.18968       
        66843.18             33.1765              0.16636       
        71455.36             33.1613              0.14591       
        76385.78             33.1471              0.12798       
        81656.4               33.134              0.11213       
        87290.69             33.1218              0.097993      
        93313.74             33.1105              0.085642      
        99752.39               33.1               0.074852      
        106635.3             33.0904              0.065423      
        113993.1             33.0816              0.057184      
        121858.7             33.0736              0.049985      
        130266.9             33.0663              0.043694      
        139255.3             33.0597              0.038196      
        148864.0             33.0537              0.033391      
        159135.6             33.0482              0.029191      
        170115.9             33.0433              0.025521      
        181853.9             33.0388              0.022313      
        194401.8             33.0348              0.019508      
        207815.6             33.0312              0.017057      
        222154.8             33.0279              0.014915      
        237483.5              33.025              0.013041      
        253869.9             33.0223              0.011404      
        271386.9              33.02              0.0099724      
        290112.6             33.0178             0.0087208      
        310130.4             33.0159             0.0076265      
        331529.4             33.0142             0.0066698      
        354404.9             33.0127             0.0058332      
        378858.8             33.0113             0.0051018      
        405000.1             33.0101             0.0044622      
        432945.1              33.009             0.0039029      
