# At
# Form Factors from Chantler Tables
# DOI: https://dx.doi.org/10.18434/T4HS32
# automatically retrived 2019-02-27 using URL https://physics.nist.gov/cgi-bin/ffast/ffast.pl
#
# Z = 85
# f_rel = -2.0891 e/atom  (Relativistic correction estimate)
# f_NT = -0.018874 e/atom (Nuclear Thomson correction)


#        E (eV)            f1 (e/atom)          f2 (e/atom)     
        6.119614            -0.241657               0.0         
        6.213281             -2.69168               0.0         
        6.238259             -5.59099               0.0         
        6.275726              -2.609               5.6874       
        6.369394            -0.0210624             5.5961       
        8.850419             2.63911               4.0899       
        8.985884             0.921561              4.0368       
        9.022009             -1.18057              4.0229       
        9.076195              1.0068               8.165        
        9.21166              2.96014               8.0974       
         10.69               6.82483               7.4081       
        11.42761             7.64511               7.0693       
        12.21612             8.30377               6.7047       
        13.05903             8.83986               6.315        
        13.9601              9.26885               5.9041       
        14.92335             9.59618               5.4778       
        15.95306             9.82142               5.043        
        17.05382             9.93647               4.6073       
        18.23053              9.9048               4.1779       
        18.9522              9.72269               3.9337       
        19.24229             9.43058               3.8396       
        19.31964             9.06984               3.8149       
        19.43568             9.46307               4.4914       
        19.48844             9.56904               4.4669       
        19.72576             9.80054               4.3587       
        20.83314             10.0552               3.8991       
        22.27063             9.99527               3.3974       
        23.8073              9.75723               2.9578       
        25.45001             9.38258               2.572        
        27.20606             8.87291               2.2342       
        29.08327             8.21025               1.939        
        31.09002             7.35213               1.6817       
        33.23523             6.21609               1.4583       
        35.52846             4.61874               1.2649       
        36.90857             3.28524               1.1666       
        37.4735              2.46771               1.1297       
        37.62415             2.01636               1.1202       
        37.85012             1.99677               1.6773       
        37.97993             1.92704               1.7019       
        38.41505             1.54296               1.7979       
        40.60054             -1.22929              2.7299       
        40.76232             -1.47646              2.8398       
        41.38623             -2.54627              3.3371       
        41.55261             -2.98891              3.4911       
        41.80217             -3.18942              4.1313       
        42.42608             -3.93531              4.9135       
        43.40198             -5.16803              6.3762       
        46.39671             -7.92998              12.625       
        49.59809             -7.50469              21.002       
        53.02035             -2.81212              29.113       
        56.67876             5.29944               34.45        
        60.58959             14.6343               35.751       
        64.77028             22.9647               33.389       
        69.23942             28.9886               28.736       
        74.01695             32.4658               23.282       
        79.12411             33.8329               18.092       
        84.58368             33.7493               13.704       
        90.41995             32.8061               10.255       
        96.65893             31.4073               7.666        
        103.3284             29.6988               5.7761       
        106.2575             28.7473               5.1509       
        107.8839             27.7849               4.846        
        108.3176              26.911               4.7693       
        108.9681             27.6345               6.2229       
        110.4581             28.0662               5.9294       
        110.5945             28.0768               5.9037       
        118.0797             27.5554               4.7243       
        126.2272             26.5188               3.845        
        134.9368             25.2183               3.2157       
        135.7294              25.057               3.1698       
        137.8069             24.3871               3.0565       
        138.3609             23.7735               3.028        
        139.1919             24.2878               4.0882       
        141.2694             24.6047               3.945        
        144.2475              24.594               3.7579       
        154.2005             24.0093               3.2571       
        164.8404             23.1583               2.8777       
        176.2144             22.1143               2.5933       
        181.9046             21.5086               2.485        
        184.6888             21.1439               2.4386       
        185.4313             20.9843               2.4268       
        186.545              20.9282               2.5574       
        186.7657             20.9114               2.5542       
        188.3732             20.7458               2.532        
        189.3292             20.6186               2.5193       
        189.6243             20.5723               2.5155       
        190.3866              20.396               2.5057       
        191.5301             20.3563               2.6836       
        193.1341             20.2266               2.6841       
        194.3887             20.0964               2.6863       
        196.0902              19.884               2.6921       
        196.8785             19.7317               2.6959       
        198.061              19.6674               2.843        
        201.0171             19.3973               2.895        
        201.3709             19.3611               2.9023       
        215.2655             17.7779               3.4011       
        230.1188              16.018               4.4301       
        245.997              14.2798               6.0819       
        262.9708              12.791               8.3924       
        281.1158             11.7914               11.29        
        300.5128             11.4749               14.601       
        321.2482             11.9469               18.085       
        343.4143             13.2036               21.484       
        367.1099             15.1565               24.568       
        392.4405             17.6291               27.162       
        419.5189             20.3878               29.159       
        448.4657             23.0912               30.52        
        465.8769             24.2237               31.015       
        473.0077              24.057               31.157       
        474.9092             23.2562               31.189       
        477.7615             24.4648               33.142       
        479.4098              24.926               33.18        
        484.8923             25.9263               33.297       
         500.0                30.041               33.537       
         502.5               30.3027               33.567       
        505.0125             30.5564               33.593       
       507.53756             30.8023               33.617       
       510.07525             31.0402               33.639       
       512.62563             31.2695               33.658       
       515.18875             31.4893               33.674       
        517.7647              31.698               33.688       
       520.35352             31.8926                33.7        
       522.95529             32.0683               33.709       
       525.57007             32.2157               33.715       
       528.19792             32.3124               33.719       
       530.83891             32.2834               33.721       
       532.81612             31.7932               33.72        
        533.4931             31.7529               34.879       
       533.58393             31.8604               34.879       
       536.16057             32.8451               34.889       
       538.84137             33.3256               34.898       
       541.53558             33.7128               34.903       
       544.24325             34.0594               34.907       
       546.96447             34.3829               34.908       
       549.69929             34.6912               34.907       
       552.44779             34.9885               34.903       
       555.21003             35.2774               34.898       
       557.98608             35.5611               34.89        
       560.77601             35.8375               34.88        
       563.57989             36.1091               34.868       
       566.39779             36.3765               34.855       
       569.22978             36.6401               34.839       
       572.07593             36.9494               34.821       
        574.9363             37.2065               34.801       
       577.81099             37.4606               34.779       
       580.70004              37.712               34.755       
       583.60354             37.9608               34.73        
       586.52156             38.2072               34.703       
       589.45417             38.4513               34.674       
       592.40144             38.6893               34.643       
       595.36345             38.9289               34.61        
       598.34026             39.1663               34.575       
       601.33196             39.4015               34.538       
       604.33862             39.6345               34.499       
       607.36032             39.8652               34.458       
       610.39712             40.0938               34.416       
        613.4491             40.3201               34.371       
       616.51635             40.5442               34.325       
       619.59893             40.7661               34.278       
       622.69693             40.9857               34.228       
       625.81041             41.2031               34.177       
       628.93946             41.4181               34.124       
       632.08416             41.6308               34.07        
       635.24458             41.8412               34.014       
        638.4208             42.0491               33.957       
       641.61291             42.2546               33.898       
       644.82097             42.4577               33.837       
       648.04508             42.6581               33.775       
        651.2853              42.856               33.712       
       654.54173             43.0512               33.647       
       657.81444             43.2444               33.581       
       661.10351             43.4355               33.513       
       664.40903             43.6228               33.444       
       667.73107             43.8067               33.374       
       671.06973             43.9871               33.302       
       674.42508             44.1641               33.229       
        677.7972             44.3375               33.155       
       681.18619             44.5071               33.08        
       684.59212             44.6727               33.004       
       688.01508             44.8339               32.927       
       691.45515             44.9904               32.849       
       694.91243             45.1417               32.77        
       698.38699             45.2874               32.69        
       701.87893             45.4266               32.609       
       705.38832             45.5585               32.527       
       708.91526             45.6818               32.445       
       712.45984             45.7948               32.361       
       716.02214              45.895               32.277       
       719.60225             45.9789               32.192       
       723.20026             46.0406               32.107       
       726.81626              46.07                32.02        
       730.45034              46.047               31.933       
        734.1026             45.9211               31.846       
       737.77311             45.4815               31.757       
       738.91221             45.0819               31.73        
       741.08781             45.1853               33.669       
       741.46197             45.3903               33.66        
       745.16928             46.3649               33.572       
       748.89513             46.8823               33.484       
       752.63961             47.2773               33.396       
        756.4028             47.6136               33.307       
       760.18482              47.915               33.218       
       763.98574             48.1931               33.128       
       767.80567             48.4543               33.038       
        771.6447             48.7026               32.948       
       775.50292             48.9408               32.856       
       779.38044             49.1706               32.765       
       783.27734             49.3933               32.672       
       787.19373             49.6101               32.58        
       791.12969             49.8217               32.487       
       795.08534             50.0289               32.394       
       799.06077             50.2322               32.301       
       803.05607             50.4321               32.207       
       807.07135             50.6275               32.105       
       811.10671             50.8184               32.001       
       815.16224             51.0051               31.897       
       819.23806             51.1879               31.793       
       823.33425             51.3668               31.688       
       827.45092              51.542               31.583       
       831.58817             51.7135               31.477       
       835.74611             51.8814               31.371       
       839.92484             52.0456               31.265       
       844.12447              52.206               31.159       
       848.34509             52.3626               31.052       
       852.58682             52.5151               30.946       
       856.84975              52.663               30.839       
        861.134              52.8058               30.732       
       865.43967             52.9424               30.625       
       869.76687             53.0708               30.518       
        874.1157             53.1874               30.412       
       878.48628             53.2827               30.305       
       882.87871              53.321               30.198       
       884.58238             53.2762               30.157       
        887.2931             53.3566               30.504       
       887.41758             53.3728               30.501       
       891.72957             53.7019               30.399       
       896.18822             53.9268               30.295       
       900.66916             54.1232               30.191       
        905.1725             54.3051               30.082       
       909.69837             54.4778               29.972       
       914.24686             54.6439               29.863       
       918.81809             54.8049               29.753       
       923.41218             54.9617               29.644       
       928.02924              55.115               29.535       
       932.66939             55.2652               29.426       
       937.33274             55.4128               29.318       
        942.0194             55.5579               29.21        
        946.7295             55.7008               29.102       
       951.46315             55.8418               28.994       
       956.22046             55.9811               28.887       
       961.00156             56.1189               28.78        
       965.80657             56.2554               28.673       
        970.6356             56.3908               28.567       
       975.48878             56.5256               28.462       
       980.36623             56.6599               28.357       
       985.26806             56.7944               28.252       
        990.1944             56.9296               28.148       
       995.14537             57.0667               28.044       
       1000.1211              57.21                27.94        
       1005.1217              57.435               27.766       
       1010.1473              57.629               27.593       
        1015.198             57.7974               27.422       
        1020.274             57.9427               27.253       
       1025.3754             58.0643               27.085       
       1030.5023              58.157               26.918       
       1035.6548             58.2008               26.752       
       1040.6559             58.0646               26.594       
       1040.8331             58.0446               26.588       
       1043.3442             58.1475               27.057       
       1046.0372             58.4062               26.973       
       1051.2674             58.6761               26.812       
       1056.5238              58.874               26.652       
       1061.8064             59.0424               26.494       
       1067.1154             59.1935               26.337       
        1072.451             59.3325               26.181       
       1077.8132             59.4622               26.027       
       1083.2023             59.5844               25.873       
       1088.6183             59.7003               25.721       
       1094.0614             59.8107               25.571       
       1099.5317             59.9162               25.421       
       1105.0294             60.0173               25.273       
       1110.5545             60.1145               25.125       
       1116.1073             60.2081               24.979       
       1121.6878             60.2983               24.835       
       1127.2963             60.3854               24.691       
       1132.9328             60.4696               24.548       
       1138.5974              60.551               24.407       
       1144.2904             60.6299               24.267       
       1150.0119             60.7063               24.128       
       1155.7619             60.7804               23.99        
       1161.5407             60.8524               23.853       
       1167.3484             60.9222               23.717       
       1173.1852             60.9901               23.583       
       1179.0511              61.056               23.449       
       1184.9464             61.1201               23.317       
       1190.8711             61.1825               23.185       
       1196.8254             61.2432               23.055       
       1202.8096             61.3023               22.926       
       1208.8236             61.3599               22.797       
       1214.8677              61.416               22.67        
       1220.9421             61.4706               22.544       
       1227.0468             61.5239               22.419       
        1233.182              61.576               22.295       
       1239.3479             61.6268               22.171       
       1245.5447             61.6764               22.049       
       1251.7724             61.7249               21.928       
       1258.0312             61.7719               21.805       
       1264.3214             61.8175               21.683       
        1270.643             61.8616               21.563       
       1276.9962             61.9045               21.443       
       1283.3812              61.946               21.324       
       1289.7981             61.9863               21.206       
       1296.2471             62.0254               21.089       
       1302.7283             62.0634               20.973       
        1309.242             62.1002               20.858       
       1315.7882             62.1359               20.743       
       1322.3671             62.1705               20.63        
        1328.979             62.2041               20.517       
       1335.6239             62.2367               20.406       
        1342.302             62.2683               20.295       
       1349.0135              62.299               20.185       
       1355.7586             62.3287               20.076       
       1362.5374             62.3575               19.967       
        1369.35              62.3852               19.859       
       1376.1968              62.412               19.752       
       1383.0778             62.4378               19.646       
       1389.9932             62.4627               19.54        
       1396.9431             62.4866               19.436       
       1403.9278             62.5097               19.332       
       1410.9475             62.5318               19.229       
       1418.0022             62.5532               19.126       
       1425.0922             62.5736               19.025       
       1432.2177             62.6075               18.924       
       1439.3788             62.6266               18.824       
       1446.5757              62.645               18.725       
       1453.8086             62.6625               18.627       
       1461.0776             62.6793               18.529       
        1468.383             62.6953               18.432       
       1475.7249             62.7106               18.336       
       1483.1035             62.7253               18.24        
        1490.519             62.7392               18.145       
       1497.9716             62.7525               18.051       
       1505.4615             62.7649               17.957       
       1512.9888             62.7764               17.863       
       1520.5537             62.7871               17.77        
       1528.1565              62.797               17.677       
       1535.7973             62.8061               17.585       
       1543.4763             62.8143               17.494       
       1551.1937             62.8218               17.404       
       1558.9496             62.8285               17.314       
       1566.7444             62.8344               17.225       
       1574.5781             62.8396               17.136       
        1582.451             62.8439               17.048       
       1590.3633             62.8476               16.961       
       1598.3151             62.8504               16.874       
       1606.3066              62.871               16.788       
       1614.3382             62.8725               16.703       
       1622.4099             62.8732               16.618       
       1630.5219             62.8732               16.534       
       1638.6745             62.8725               16.451       
       1646.8679              62.871               16.368       
       1655.1022             62.8688               16.286       
       1663.3777             62.8658               16.204       
       1671.6946             62.8621               16.123       
       1680.0531             62.8577               16.042       
       1688.4534             62.8525               15.963       
       1696.8956             62.8466               15.883       
       1705.3801              62.84                15.804       
        1713.907             62.8326               15.726       
       1722.4766             62.8244               15.649       
       1731.0889             62.8156               15.572       
       1739.7444              62.806               15.495       
       1748.4431             62.7956               15.419       
       1757.1853             62.7845               15.344       
       1765.9712             62.7726               15.269       
       1774.8011             62.7599               15.195       
       1783.6751             62.7465               15.121       
       1792.5935             62.7324               15.047       
       1801.5565             62.7174               14.975       
       1810.5642             62.7017               14.903       
       1819.6171             62.6852               14.831       
       1828.7151             62.6679               14.76        
       1837.8587             62.6499               14.689       
        1847.048              62.631               14.619       
       1856.2833             62.6113               14.549       
       1865.5647             62.5909               14.48        
       1874.8925             62.5696               14.411       
        1884.267             62.5475               14.343       
       1893.6883             62.5246               14.275       
       1903.1567             62.5009               14.207       
       1912.6725             62.4759               14.131       
       1922.2359             62.4493               14.055       
       1931.8471             62.4212               13.981       
       1941.5063             62.3915               13.907       
       1951.2138             62.3603               13.833       
       1960.9699             62.3275               13.76        
       1970.7747             62.2931               13.687       
       1980.6286             62.2571               13.615       
       1990.5318             62.2196               13.543       
       2000.4844             62.1804               13.472       
       2010.4868             62.1396               13.402       
       2020.5393             62.0971               13.332       
        2030.642             62.0529               13.262       
       2040.7952             62.0071               13.193       
       2050.9992             61.9595               13.124       
       2061.2542              61.91                13.056       
       2071.5604             61.8588               12.988       
       2081.9182             61.8057               12.92        
       2092.3278             61.7467               12.853       
       2102.7895             61.6898               12.786       
       2113.3034             61.6309               12.72        
       2123.8699             61.5699               12.654       
       2134.4893             61.5067               12.587       
       2145.1617              61.441               12.516       
       2155.8875             61.3725               12.445       
        2166.667             61.3012               12.375       
       2177.5003              61.227               12.306       
       2188.3878             61.1498               12.236       
       2199.3297             61.0695               12.168       
       2210.3264             60.9861                12.1        
        2221.378             60.9045               12.032       
       2232.4849             60.8145               11.965       
       2243.6473              60.721               11.898       
       2254.8656             60.6238               11.832       
       2266.1399             60.5229               11.766       
       2277.4706              60.418               11.701       
       2288.8579              60.309               11.636       
       2300.3022             60.1957               11.572       
       2311.8037             60.0779               11.508       
       2323.3628             59.9554               11.444       
       2334.9796              59.828               11.381       
       2346.6545             59.6953               11.318       
       2358.3878             59.5571               11.256       
       2370.1797             59.4131               11.195       
       2382.0306              59.263               11.133       
       2393.9407             59.1063               11.072       
       2405.9104             58.9427               11.012       
        2417.94              58.7717               10.952       
       2430.0297             58.5928               10.892       
       2442.1798             58.4054               10.833       
       2454.3907              58.209               10.774       
       2466.6627             58.0028               10.716       
        2478.996              57.786               10.658       
        2491.391             57.5578                10.6        
       2503.8479             57.3171               10.543       
       2516.3672             57.0629               10.486       
        2528.949             56.7938               10.43        
       2541.5938             56.5083               10.374       
       2554.3017             56.2047               10.318       
       2567.0732             55.8809               10.263       
       2579.9086             55.5345               10.208       
       2592.8082             55.1626               10.154       
       2605.7722             54.7618                10.1        
       2618.8011             54.3277               10.046       
       2631.8951             53.8551               9.9924       
       2645.0545             53.3372               9.9392       
       2658.2798             52.7621               9.8864       
       2671.5712              52.125               9.834        
       2684.9291             51.4068               9.7819       
       2698.3537             50.5855               9.7302       
       2711.8455             49.6278               9.6788       
       2725.4047             48.4808               9.6278       
       2739.0317             47.0512               9.5771       
       2752.7269             45.1506               9.5267       
       2766.4905             42.2866               9.4767       
        2780.323             36.0743               9.4271       
       2785.9225             24.9183               9.4071       
       2787.4775             24.6386               26.001       
       2794.2246              36.586               25.901       
       2808.1957             41.9162               25.695       
       2822.2367             44.2477               25.491       
       2836.3479              45.572               25.289       
       2850.5296             46.3024               25.089       
       2864.7823              46.538               24.89        
       2879.1062             46.1883               24.694       
       2893.5017             44.7409               24.499       
       2907.9692              34.664               24.305       
       2909.5697             35.2111               35.654       
       2922.5091             45.9635               35.36        
       2937.1216             49.2886               35.032       
       2951.8072             51.4263               34.708       
       2966.5662             53.0571               34.386       
       2981.3991             54.3935               34.067       
       2996.3061             55.5315               33.751       
       3011.2876              56.539               33.427       
        3026.344             57.4338               33.103       
       3041.4758             58.2322               32.783       
       3056.6831             58.9481               32.472       
       3071.9666             59.6009               32.177       
       3087.3264             60.2011               31.888       
        3102.763             60.7542               31.603       
       3118.2768             61.2649               31.323       
       3133.8682              61.737               31.046       
       3149.5376             62.1737               30.774       
       3165.2853             62.5775               30.507       
       3181.1117             62.9504               30.243       
       3197.0172             63.2938               29.982       
       3213.0023             63.6087               29.726       
       3229.0673             63.8955               29.472       
       3245.2127             64.1543               29.223       
       3261.4387             64.3844               28.976       
       3277.7459             64.5842               28.733       
       3294.1347             64.7511               28.493       
       3310.6053             64.8811               28.256       
       3327.1584             64.9672               28.022       
       3343.7941             64.9983               27.79        
       3360.5131             64.9547               27.561       
       3377.3157             64.7979               27.335       
       3394.2023             64.4375               27.112       
       3411.1733             63.5591               26.891       
       3422.0602              61.718               26.751       
       3428.2291             60.8811               31.482       
        3429.94              61.7851               31.455       
       3445.3703             64.4809               31.216       
       3462.5971             65.7151               30.953       
       3479.9101              66.551               30.693       
       3497.3097              67.208               30.435       
       3514.7962              67.76                30.18        
       3532.3702             68.2409               29.928       
       3550.0321             68.6694               29.677       
       3567.7822             69.0562               29.429       
       3585.6211             69.4079               29.182       
       3603.5492             69.7284               28.945       
        3621.567              70.03                28.72        
       3639.6748             70.3141               28.491       
       3657.8732             70.5812               28.264       
       3676.1626             70.8327               28.04        
       3694.5434             71.0697               27.819       
       3713.0161             71.2934                27.6        
       3731.5812             71.5044               27.384       
       3750.2391             71.7034               27.17        
       3768.9903             71.8908               26.958       
       3787.8352             72.0668               26.747       
       3806.7744             72.2297               26.534       
       3825.8083             72.3791               26.324       
       3844.9373             72.5145               26.116       
        3864.162             72.6348               25.91        
       3883.4828             72.7379               25.706       
       3902.9002             72.8209               25.504       
       3922.4147             72.8781               25.304       
       3942.0268             72.8994               25.107       
       3961.7369             72.8631               24.911       
       3981.5456             72.7088               24.717       
       4001.4533             72.0824               24.525       
       4002.3486             72.0069               24.516       
       4013.6512             72.0742               26.173       
       4021.4606             72.6244               26.09        
       4041.5679             73.2843               25.878       
       4061.7757             73.6831               25.668       
       4082.0846             73.9871               25.46        
        4102.495             74.2385               25.254       
       4123.0075             74.4541               25.05        
       4143.6226             74.6422               24.848       
       4164.3407             74.8068               24.648       
       4185.1624             74.9494               24.45        
       4206.0882             75.0688               24.254       
       4227.1186             75.1655               24.07        
       4248.2542             75.2375               23.888       
       4269.4955             75.2703               23.708       
        4290.843             75.2228               23.53        
       4308.0637             74.9852               23.389       
       4312.2972             74.8018               23.355       
       4325.9361             75.0946               24.28        
       4333.8587             75.3546               24.216       
        4355.528             75.7624               24.043       
       4377.3056             76.0413               23.872       
       4399.1921              76.271               23.703       
       4421.1881             76.4735               23.535       
        4443.294             76.6586               23.369       
       4465.5105             76.8307               23.202       
       4487.8381             76.9916               23.034       
       4510.2772             77.1433               22.868       
       4532.8286             77.2873               22.702       
       4555.4928             77.4247               22.538       
       4578.2702              77.556               22.376       
       4601.1616             77.6821               22.215       
       4624.1674             77.8034               22.055       
       4647.2882             77.9203               21.897       
       4670.5247             78.0333               21.74        
       4693.8773             78.1426               21.585       
       4717.3467             78.2484               21.431       
       4740.9334             78.3511               21.278       
       4764.6381             78.4507               21.127       
       4788.4613             78.5475               20.977       
       4812.4036             78.6417               20.828       
       4836.4656             78.7333               20.681       
       4860.6479             78.8225               20.535       
       4884.9512             78.9094               20.39        
       4909.3759             78.9942               20.246       
       4933.9228              79.077               20.103       
       4958.5924             79.1577               19.962       
       4983.3854             79.2366               19.822       
       5008.3023             79.3138               19.683       
       5033.3438             79.3892               19.545       
       5058.5105             79.4631               19.408       
       5083.8031             79.5355               19.272       
       5109.2221             79.6065               19.137       
       5134.7682             79.6762               19.004       
       5160.4421             79.7447               18.871       
       5186.2443             79.8122               18.74        
       5212.1755             79.8789               18.609       
       5238.2364             79.9439               18.475       
       5264.4276              80.007               18.343       
       5290.7497             80.0684               18.212       
       5317.2034             80.1281               18.081       
       5343.7895             80.1863               17.952       
       5370.5084             80.2431               17.823       
       5397.3609             80.2985               17.696       
       5424.3477             80.3526               17.569       
       5451.4695             80.4055               17.443       
       5478.7268             80.4572               17.318       
       5506.1205             80.5077               17.195       
       5533.6511             80.5572               17.072       
       5561.3193             80.6057               16.95        
       5589.1259             80.8195               16.825       
       5617.0716             80.8659                16.7        
       5645.1569             80.9106               16.575       
       5673.3827             80.9538               16.451       
       5701.7496             80.9955               16.328       
       5730.2584             81.0358               16.206       
       5758.9096             81.0748               16.085       
       5787.7042             81.1126               15.964       
       5816.6427             81.1491               15.845       
       5845.7259             81.2989               15.724       
       5874.9546             81.3329               15.604       
       5904.3293             81.3655               15.485       
        5933.851             81.3968               15.367       
       5963.5202             81.4269               15.25        
       5993.3378             81.4558               15.134       
       6023.3045             81.4835               15.019       
        6053.421              81.51                14.905       
       6083.6882             81.5356               14.792       
       6114.1066              81.56                14.679       
       6144.6771             81.5835               14.568       
       6175.4005             81.6061               14.458       
       6206.2775             81.6277               14.349       
       6237.3089             81.6483               14.24        
       6268.4954             81.6682               14.133       
       6299.8379             81.6871               14.026       
       6331.3371             81.7053               13.921       
       6362.9938             81.7226               13.816       
       6394.8088             81.7392               13.712       
       6426.7828             81.7551               13.609       
       6458.9167             81.7702               13.507       
       6491.2113             81.7846               13.406       
       6523.6674             81.7983               13.306       
       6556.2857             81.8114               13.206       
       6589.0671             81.8238               13.108       
       6622.0125             81.8356               13.01        
       6655.1225             81.8468               12.913       
       6688.3981             81.8575               12.817       
       6721.8401             81.8676               12.722       
       6755.4493             81.8771               12.628       
       6789.2266             81.8862               12.535       
       6823.1727             81.8947               12.442       
       6857.2886              81.992               12.35        
        6891.575             81.9999               12.257       
       6926.0329             82.0071               12.165       
       6960.6631             82.0137               12.073       
       6995.4664             82.0197               11.983       
       7030.4437             82.0251               11.893       
       7065.5959             82.0299               11.804       
       7100.9239             82.0342               11.716       
       7136.4285              82.038               11.628       
       7172.1107             82.0412               11.542       
       7207.9712             82.0439               11.456       
       7244.0111             82.0462               11.371       
       7280.2311              82.048               11.286       
       7316.6323             82.0493               11.203       
       7353.2155             82.0503               11.12        
       7389.9815             82.0508               11.037       
       7426.9314             82.0509               10.956       
       7464.0661             82.0506               10.875       
       7501.3864             82.0499               10.795       
       7538.8934             82.0489               10.716       
       7576.5878             82.0475               10.637       
       7614.4708             82.0458               10.559       
       7652.5431             82.0437               10.482       
       7690.8058             82.0413               10.405       
       7729.2599             82.0387               10.329       
       7767.9062             82.0357               10.254       
       7806.7457             82.0325               10.179       
       7845.7794             82.0289               10.105       
       7885.0083             82.0252               10.032       
       7924.4334             82.0212               9.9593       
       7964.0555             82.0169               9.8872       
       8003.8758             82.0125               9.8158       
       8043.8952             82.0452               9.7444       
       8084.1147             82.0404               9.6733       
       8124.5352             82.0354               9.6028       
       8165.1579              82.03                9.5329       
       8205.9837             82.0244               9.4636       
       8247.0136             82.0186               9.3948       
       8288.2487             82.0126               9.3267       
       8329.6899             82.0064               9.2592       
       8371.3384               82.0                9.1922       
       8413.1951             81.9934               9.1258       
        8455.261             81.9867                9.06        
       8497.5373             81.9799               8.9947       
        8540.025              81.973               8.9299       
        9030.794             82.2117               8.2073       
        9653.919             81.9647               7.3369       
        10320.04             81.6115               6.568        
        11032.12             81.1566               5.8878       
        11793.34             80.5644               5.2868       
        12607.08             79.7232               4.7459       
        13476.97             78.1972               4.2563       
        13929.23             76.3888               4.0362       
        14142.43             73.7593               3.9386       
        14199.29             70.6732               3.9133       
        14284.57             73.7471               9.9118       
        14406.88             75.7156               9.7728       
        14497.77             76.4679               9.6715       
        15400.95             78.9363               8.7318       
        16463.62             78.6416               7.779        
        16700.78             77.4554               7.5881       
        16767.92             75.9108               7.5353       
        16868.62              77.48                10.515       
        17120.39             78.8175               10.261       
        17143.14             78.8698               10.238       
        17405.54             78.9277               9.9842       
        17475.51             78.2876               9.9178       
        17580.47              79.276               11.37        
        17599.61             79.4102               11.351       
        17842.86              80.406               11.116       
        18813.98             82.1471               10.243       
        20112.15             83.2985               9.2187       
        21499.88             84.0104               8.2961       
        22983.38             84.4861               7.4647       
        24569.23             84.8104               6.717        
        26264.5              85.0419               6.048        
        28076.76             85.2036               5.4145       
        30014.05             85.3412               4.8312       
        32085.02             85.3658               4.3129       
        34298.89             85.3929               3.8515       
        36665.51             85.3852               3.4298       
        39195.43              85.326               3.0538       
        41899.92             85.2512               2.721        
        44791.01             85.1663               2.4264       
        47881.59             85.0743               2.1653       
        51185.42             84.9773               1.9337       
        54717.21              84.876               1.7282       
        58492.7              84.7701               1.5457       
        62528.7              84.6586               1.3827       
        66843.18             84.5368               1.2356       
        71455.36             84.3993               1.1052       
        76385.78             84.2357              0.98789       
        81656.4              84.0203              0.87854       
        87290.69             83.6783              0.77724       
        93313.74             82.8155              0.68813       
        93815.3              82.6491              0.68145       
        95251.25             81.6283               0.6629       
        95634.17             80.4074              0.65809       
        96208.55             81.6796               3.0533       
        97644.49             82.7918               2.9843       
        99752.39             83.4034               2.8871       
        106635.3             84.2221               2.601        
        113993.1             84.6138               2.3399       
        121858.7             84.8511               2.1028       
        130266.9             85.0066               1.8893       
        139255.3             85.1125               1.6961       
        148864.0             85.1831               1.5209       
        159135.6             85.2292               1.3638       
        170115.9             85.2579               1.223        
        181853.9             85.2741               1.0968       
        194401.8             85.2812              0.98376       
        207815.6             85.2817              0.88244       
        222154.8             85.2773              0.79163       
        237483.5             85.2695              0.71025       
        253869.9             85.2593              0.63731       
        271386.9             85.2474              0.57192       
        290112.6             85.2346              0.51329       
        310130.4             85.2212              0.46072       
        331529.4             85.2076              0.41357       
        354404.9             85.1941              0.37129       
        378858.8             85.1808              0.33336       
        405000.1             85.1679              0.29933       
        432945.1             85.1555               0.2688       
