# Au
# Form Factors from Chantler Tables
# DOI: https://dx.doi.org/10.18434/T4HS32
# automatically retrived 2019-02-27 using URL https://physics.nist.gov/cgi-bin/ffast/ffast.pl
#
# Z = 79
# f_rel = -1.7226 e/atom  (Relativistic correction estimate)
# f_NT = -0.017382 e/atom (Nuclear Thomson correction)


#        E (eV)            f1 (e/atom)          f2 (e/atom)     
        6.65451              2.88762                0.0         
        6.756365             2.24634                0.0         
        6.783526             1.53627                0.0         
        6.824268             2.22782               1.3641       
        6.926123             2.79003               1.3448       
        8.142217             2.53588               1.2374       
        8.266843              2.0654               1.2519       
        8.300076             1.54542               1.2564       
        8.349926             2.05749               2.2605       
        8.474552             2.46605               2.2498       
         10.69               1.80913               2.9953       
        11.42761             1.37655               3.6048       
        12.21612             0.965328              4.406        
        13.05903             0.624303              5.4098       
        13.9601              0.411793              6.6185       
        14.92335             0.394079              8.0179       
        15.95306             0.639962              9.5717       
        17.05382             1.21194               11.217       
        18.23053             2.15504               12.867       
        19.48844             3.48533               14.413       
        20.83314              5.2549               15.74        
        22.27063             7.25321               16.739       
        23.8073              9.45427               17.327       
        25.45001             11.7727               17.457       
        27.20606             13.9985               17.13        
        29.08327             16.0474               16.382       
        31.09002             17.8149               15.29        
        33.23523             19.2362               13.958       
        35.52846              20.284               12.491       
        37.97993             20.9586               10.985       
        40.60054             21.2841               9.5236       
        43.40198             21.2906               8.1647       
        46.39671             20.9863               6.9419       
        49.59809             20.2798               5.8697       
         52.626              18.6073               5.044        
        53.02035             18.0425               4.9482       
        53.4315              16.8898               4.8509       
        53.6463              14.8645               4.8011       
        53.9685              16.9775               8.693        
         54.774              18.7833               8.3716       
        56.67876             20.0123               7.675        
        60.58959             20.6579               6.4803       
        64.77028             20.5746               5.468        
        69.23942             19.8937               4.6215       
         70.266               19.541               4.4554       
        71.3415              18.6908               4.2912       
        71.6283              17.7435               4.249        
        72.0585              18.6642               6.0093       
         73.134              19.4156               5.8445       
        74.01695             19.6412               5.7157       
        79.12411             19.8939               5.0728       
         81.144              19.7664               4.8498       
         82.386              19.4939               4.7156       
        82.7172              19.1793               4.6802       
         83.214              19.4857               5.2303       
         84.456              19.7029               5.0814       
        84.58368             19.7089               5.0663       
         84.672               19.712               5.0559       
         85.968              19.6317               4.9054       
        86.3136              19.4433               4.866        
         86.832              19.6712               5.2064       
         88.128              19.8761               5.0542       
        90.41995             19.9742               4.7971       
        96.65893             19.8306               4.2015       
        103.3284             19.4054               3.7598       
        105.644              19.2152               3.6471       
        107.261              19.0492               3.5794       
        107.6922             18.9666               3.5628       
        108.339              18.9635               3.6344       
        109.956              18.8743               3.5821       
        110.4581             18.8392               3.5674       
        118.0797              18.219               3.4351       
        126.2272             17.4805               3.4634       
        134.9368              16.655               3.6848       
        144.2475             15.7662               4.1139       
        154.2005             14.8392               4.7809       
        164.8404              13.92                5.7275       
        176.2144             13.0583               6.9748       
        188.3732              12.332               8.5341       
        201.3709             11.8252               10.395       
        215.2655             11.6285               12.519       
        230.1188             11.8101               14.836       
        245.997              12.4275               17.247       
        262.9708             13.5101               19.637       
        281.1158             15.0151               21.884       
        300.5128             16.8766               23.873       
        321.2482             18.9208               25.508       
        327.222              19.4424               25.888       
        332.2305             19.7143               26.177       
        333.5661             19.5627               26.249       
        335.5695             20.0379               26.917       
        340.578              20.7741               27.197       
        343.4143             21.1074               27.345       
         344.96               21.276               27.421       
         350.24              21.7325               27.665       
        351.648               21.684               27.726       
         353.76               22.137               28.234       
         359.04              22.9277               28.458       
        367.1099             23.9458               28.755       
        392.4405             26.8316               29.359       
        419.5189             29.5822               29.557       
        448.4657             32.1468               29.402       
        479.4098             34.4526               28.958       
         500.0               36.8596               28.559       
         502.5               36.9982               28.506       
        505.0125             37.1334               28.452       
       507.53756              37.265               28.398       
       510.07525             37.3927               28.342       
       512.62563              37.516               28.286       
       515.18875             37.6344               28.228       
        517.7647             37.7473               28.17        
       520.35352             37.8538               28.111       
       522.95529             37.9528               28.051       
       525.57007             38.0427               27.99        
       528.19792             38.1212               27.928       
       530.83891              38.185               27.866       
        533.4931             38.2285               27.802       
       536.16057             38.2419               27.738       
       538.84137             38.2052               27.673       
       541.53558             38.0654               27.608       
       544.24325             37.5543               27.542       
       544.69646             37.3074               27.531       
       546.10359             37.3821               29.209       
       546.96447             37.8633               29.188       
       549.69929             38.5583               29.123       
       552.44779             38.9711               29.058       
       555.21003             39.2936               28.991       
       557.98608             39.5706               28.924       
       560.77601             39.8197               28.856       
       563.57989             40.0498               28.788       
       566.39779             40.2659               28.72        
       569.22978             40.4711               28.65        
       572.07593             40.6676               28.581       
        574.9363             40.8568               28.51        
       577.81099             41.0397               28.439       
       580.70004             41.2172               28.368       
       583.60354             41.3899               28.296       
       586.52156             41.5581               28.224       
       589.45417             41.7223               28.152       
       592.40144             41.8828               28.079       
       595.36345             42.0397               28.005       
       598.34026             42.1933               27.931       
       601.33196             42.3436               27.857       
       604.33862             42.4907               27.783       
       607.36032             42.6347               27.708       
       610.39712             42.7755               27.632       
        613.4491              42.913               27.557       
       616.51635             43.0471               27.481       
       619.59893             43.1775               27.404       
       622.69693             43.3038               27.328       
       625.81041             43.4254               27.251       
       628.93946             43.5413               27.174       
       632.08416             43.6495               27.096       
       635.24458             43.7464               27.018       
        638.4208             43.8227               26.94        
       641.61291             43.8414               26.862       
       642.78595             43.7886               26.833       
       644.61406             43.8618               27.171       
       644.82097             43.8949               27.166       
       648.04508             44.1878               27.089       
        651.2853             44.3826               27.012       
       654.54173             44.5518               26.934       
       657.81444             44.7084               26.857       
       661.10351             44.8569               26.779       
       664.40903             44.9998               26.701       
       667.73107             45.1382               26.623       
       671.06973             45.2729               26.545       
       674.42508             45.4044               26.466       
        677.7972             45.5331               26.388       
       681.18619             45.6593               26.309       
       684.59212              45.783               26.23        
       688.01508             45.9045               26.151       
       691.45515             46.0238               26.072       
       694.91243             46.1409               25.993       
       698.38699             46.2559               25.914       
       701.87893             46.3689               25.834       
       705.38832             46.4797               25.755       
       708.91526             46.5884               25.675       
       712.45984             46.6948               25.596       
       716.02214              46.799               25.516       
       719.60225             46.9006               25.436       
       723.20026             46.9995               25.356       
       726.81626             47.0954               25.276       
       730.45034             47.1878               25.197       
        734.1026             47.2762               25.117       
       737.77311             47.3596               25.036       
       741.46197             47.4364               24.956       
       745.16928              47.504               24.876       
       748.89513             47.5571               24.796       
       752.63961             47.5825               24.716       
        756.4028             47.5268               24.636       
       757.59354             47.4426               24.611       
       760.00652             47.5088               25.095       
       760.18482             47.5372               25.092       
       763.98574             47.8657               25.012       
       767.80567             48.0626               24.933       
        771.6447             48.2251               24.854       
       775.50292             48.3711               24.775       
       779.38044             48.5071               24.695       
       783.27734             48.6363               24.616       
       787.19373             48.7605               24.537       
       791.12969             48.8808               24.458       
       795.08534             48.9978               24.379       
       799.06077             49.1121                24.3        
       803.05607             49.2241               24.221       
       807.07135             49.3341               24.141       
       811.10671             49.4422               24.063       
       815.16224             49.5487               23.984       
       819.23806             49.6537               23.905       
       823.33425             49.7573               23.826       
       827.45092             49.8596               23.747       
       831.58817             49.9607               23.668       
       835.74611             50.0607               23.59        
       839.92484             50.1597               23.511       
       844.12447             50.2577               23.433       
       848.34509             50.3547               23.354       
       852.58682             50.4508               23.276       
       856.84975             50.5461               23.197       
        861.134              50.6405               23.119       
       865.43967             50.7342               23.041       
       869.76687             50.8271               22.963       
        874.1157             50.9193               22.884       
       878.48628             51.0108               22.806       
       882.87871             51.1017               22.728       
        887.2931             51.1919               22.651       
       891.72957             51.2816               22.573       
       896.18822             51.3708               22.495       
       900.66916             51.4595               22.417       
        905.1725             51.5477               22.34        
       909.69837             51.6355               22.262       
       914.24686              51.723               22.185       
       918.81809             51.8101               22.108       
       923.41218              51.897               22.031       
       928.02924             51.9834               21.953       
       932.66939             52.0696               21.875       
       937.33274             52.1555               21.797       
        942.0194             52.2412               21.72        
        946.7295             52.3267               21.643       
       951.46315             52.4122               21.565       
       956.22046             52.4977               21.488       
       961.00156             52.5833               21.411       
       965.80657             52.6691               21.334       
        970.6356             52.7551               21.257       
       975.48878             52.8415               21.181       
       980.36623             52.9284               21.104       
       985.26806              53.016               21.028       
        990.1944             53.1045               20.952       
       995.14537             53.1943               20.876       
       1000.1211             53.2862               20.799       
       1005.1217             53.3772               20.696       
       1010.1473             53.4425               20.593       
        1015.198             53.5046               20.49        
        1020.274             53.5648               20.388       
       1025.3754             53.6233               20.286       
       1030.5023             53.6804               20.185       
       1035.6548             53.7361               20.084       
       1040.8331             53.7905               19.984       
       1046.0372             53.8437               19.884       
       1051.2674             53.8957               19.785       
       1056.5238             53.9595               19.686       
       1061.8064             54.0092               19.587       
       1067.1154             54.0578               19.49        
        1072.451             54.1054               19.392       
       1077.8132             54.1518               19.296       
       1083.2023             54.1973               19.199       
       1088.6183             54.2417               19.103       
       1094.0614              54.285               19.007       
       1099.5317             54.3271               18.911       
       1105.0294             54.3681               18.816       
       1110.5545              54.408               18.721       
       1116.1073             54.4468               18.627       
       1121.6878             54.4846               18.533       
       1127.2963             54.5214               18.44        
       1132.9328             54.5571               18.347       
       1138.5974             54.5918               18.255       
       1144.2904             54.6255               18.163       
       1150.0119             54.6582               18.071       
       1155.7619             54.6899               17.981       
       1161.5407             54.7207               17.89        
       1167.3484             54.7505                17.8        
       1173.1852             54.7793               17.711       
       1179.0511             54.8073               17.622       
       1184.9464             54.8343               17.533       
       1190.8711             54.8604               17.446       
       1196.8254             54.8856               17.358       
       1202.8096              54.91                17.271       
       1208.8236             54.9334               17.185       
       1214.8677              54.956               17.099       
       1220.9421             54.9777               17.013       
       1227.0468             54.9986               16.928       
        1233.182             55.0186               16.844       
       1239.3479             55.0378               16.759       
       1245.5447             55.0562               16.676       
       1251.7724             55.0738               16.593       
       1258.0312             55.0906               16.51        
       1264.3214             55.1066               16.428       
        1270.643             55.1219               16.347       
       1276.9962             55.1364               16.265       
       1283.3812             55.1502               16.185       
       1289.7981             55.1631               16.104       
       1296.2471             55.1753               16.024       
       1302.7283             55.1866               15.944       
        1309.242             55.1972               15.865       
       1315.7882              55.207               15.786       
       1322.3671             55.2161               15.707       
        1328.979             55.2245               15.629       
       1335.6239             55.2322               15.552       
        1342.302             55.2388               15.466       
       1349.0135              55.244               15.381       
       1355.7586             55.2479               15.296       
       1362.5374             55.2505               15.212       
        1369.35              55.2518               15.128       
       1376.1968             55.2518               15.045       
       1383.0778             55.2505               14.963       
       1389.9932              55.248               14.881       
       1396.9431             55.2443               14.799       
       1403.9278             55.2394               14.719       
       1410.9475             55.2333               14.636       
       1418.0022             55.2256               14.551       
       1425.0922             55.2163               14.466       
       1432.2177             55.2055               14.382       
       1439.3788              55.193               14.298       
       1446.5757              55.179               14.215       
       1453.8086             55.1634               14.133       
       1461.0776             55.1463               14.051       
        1468.383             55.1277               13.97        
       1475.7249             55.1075               13.889       
       1483.1035             55.0857               13.809       
        1490.519             55.0624               13.73        
       1497.9716             55.0376               13.651       
       1505.4615             55.0112               13.573       
       1512.9888             54.9832               13.495       
       1520.5537             54.9537               13.418       
       1528.1565             54.9226               13.341       
       1535.7973             54.8898               13.265       
       1543.4763             54.8555               13.189       
       1551.1937             54.8194               13.114       
       1558.9496             54.7818               13.037       
       1566.7444             54.7424               12.957       
       1574.5781              54.701               12.878       
        1582.451             54.6577                12.8        
       1590.3633             54.6123               12.722       
       1598.3151             54.5649               12.645       
       1606.3066             54.5154               12.569       
       1614.3382             54.4639               12.493       
       1622.4099             54.4102               12.418       
       1630.5219             54.3544               12.34        
       1638.6745              54.304               12.262       
       1646.8679             54.2434               12.184       
       1655.1022             54.1804               12.108       
       1663.3777             54.1148               12.032       
       1671.6946             54.0467               11.957       
       1680.0531             53.9759               11.882       
       1688.4534             53.9024               11.808       
       1696.8956             53.8261               11.735       
       1705.3801              53.747               11.662       
        1713.907              53.665               11.59        
       1722.4766             53.5799               11.518       
       1731.0889             53.4918               11.447       
       1739.7444             53.4004               11.377       
       1748.4431             53.3057               11.307       
       1757.1853             53.2076               11.238       
       1765.9712              53.106               11.17        
       1774.8011             53.0006               11.102       
       1783.6751             52.8914               11.035       
       1792.5935             52.7782               10.968       
       1801.5565             52.6608               10.902       
       1810.5642             52.5391               10.836       
       1819.6171             52.4128               10.771       
       1828.7151             52.2817               10.706       
       1837.8587             52.1456               10.642       
        1847.048             52.0043               10.579       
       1856.2833             51.8574               10.516       
       1865.5647             51.7047               10.453       
       1874.8925             51.5457               10.391       
        1884.267             51.3803               10.33        
       1893.6883             51.2079               10.269       
       1903.1567             51.0281               10.209       
       1912.6725             50.8404               10.149       
       1922.2359             50.6444               10.089       
       1931.8471             50.4395               10.03        
       1941.5063             50.2249               9.9719       
       1951.2138             49.9998               9.914        
       1960.9699             49.7636               9.8565       
       1970.7747             49.5152               9.7994       
       1980.6286             49.2537               9.7429       
       1990.5318             48.9778               9.6868       
       2000.4844             48.6861               9.6311       
       2010.4868              48.377               9.5759       
       2020.5393             48.0488               9.5212       
        2030.642             47.6993               9.4668       
       2040.7952             47.3259               9.4129       
       2050.9992             46.9257               9.3594       
       2061.2542              46.495               9.3063       
       2071.5604             46.0294               9.2537       
       2081.9182             45.5233               9.2015       
       2092.3278              44.97                9.1496       
       2102.7895             44.3604               9.0983       
       2113.3034             43.6829               9.0473       
       2123.8699             42.9216               8.9967       
       2134.4893             42.0539               8.9465       
       2145.1617             41.0468               8.8967       
       2155.8875             39.8476               8.8473       
        2166.667             38.3658               8.7983       
       2177.5003             36.4219               8.7497       
       2188.3878             33.5677               8.7003       
       2199.3297             27.8928               8.6506       
       2205.1132              14.718               8.6246       
       2206.2866             14.4147               25.848       
       2210.3264             25.6735               25.78        
        2221.378             32.0631               25.595       
       2232.4849             34.5666               25.411       
       2243.6473             35.8899               25.228       
       2254.8656             36.5015               25.047       
       2266.1399             36.4465               24.867       
       2277.4706             35.3612               24.689       
       2288.8579             29.7952               24.512       
       2290.4585             25.3813               24.487       
       2291.7415             25.2987               35.886       
       2300.3022             35.6491               35.689       
       2311.8037             39.3788               35.427       
       2323.3628             41.6868               35.168       
       2334.9796             43.4321               34.91        
       2346.6545             44.8607               34.654       
       2358.3878             46.0806                34.4        
       2370.1797             47.1495               34.148       
       2382.0306             48.1028               33.898       
       2393.9407             48.9635               33.65        
       2405.9104              49.748               33.405       
        2417.94               50.468               33.16        
       2430.0297             51.1326               32.918       
       2442.1798             51.7487               32.678       
       2454.3907             52.3217               32.44        
       2466.6627             52.8561               32.203       
        2478.996             53.3553               31.968       
        2491.391             53.8222               31.736       
       2503.8479             54.2592               31.504       
       2516.3672             54.6683               31.275       
        2528.949             55.0508               31.048       
       2541.5938             55.4079               30.822       
       2554.3017             55.7405               30.598       
       2567.0732              56.049               30.376       
       2579.9086             56.3336               30.155       
       2592.8082             56.5938               29.935       
       2605.7722              56.829               29.717       
       2618.8011             57.0376               29.501       
       2631.8951             57.2174               29.286       
       2645.0545              57.365               29.073       
       2658.2798             57.4747               28.862       
       2671.5712              57.538               28.652       
       2684.9291             57.5399               28.444       
       2698.3537             57.4535               28.238       
       2711.8455              57.221               28.033       
       2725.4047             56.6801               27.83        
       2739.0317             54.8263               27.628       
       2740.4353              54.232               27.607       
       2745.5647             54.2566               32.004       
       2752.7269             56.2907               31.894       
       2766.4905             57.7964               31.684       
        2780.323             58.6963               31.476       
       2794.2246             59.3792               31.27        
       2808.1957             59.9469               31.064       
       2822.2367             60.4418               30.861       
       2836.3479             60.8855               30.659       
       2850.5296             61.2908               30.458       
       2864.7823             61.6661               30.259       
       2879.1062             62.0157               30.055       
       2893.5017             62.3422               29.851       
       2907.9692             62.6487               29.649       
       2922.5091             62.9375               29.448       
       2937.1216             63.2102               29.249       
       2951.8072             63.4683               29.051       
       2966.5662             63.7128               28.854       
       2981.3991             63.9446               28.658       
       2996.3061              64.163               28.46        
       3011.2876             64.3822               28.244       
        3026.344             64.5811               28.023       
       3041.4758             64.7577               27.805       
       3056.6831             64.9116               27.587       
       3071.9666             65.0396               27.372       
       3087.3264             65.1351               27.158       
        3102.763             65.1847               26.945       
       3118.2768             65.1563               26.734       
       3133.8682             64.9396               26.525       
       3143.1727             64.4455               26.401       
       3149.5376             63.9561               28.058       
       3152.4272              64.535               28.018       
       3165.2853             65.4239               27.839       
       3181.1117             65.9569               27.623       
       3197.0172             66.3394               27.408       
       3213.0023             66.6525               27.195       
       3229.0673             66.9232               26.983       
       3245.2127             67.1635               26.773       
       3261.4387             67.3798               26.565       
       3277.7459             67.5756               26.358       
       3294.1347             67.7524               26.153       
       3310.6053             67.9105               25.953       
       3327.1584             68.0521               25.756       
       3343.7941             68.1757               25.562       
       3360.5131             68.2767               25.369       
       3377.3157             68.3466               25.179       
       3394.2023             68.3634               24.99        
       3411.1733              68.248               24.802       
        3417.742             68.0844               24.731       
       3428.2291             67.9097               25.703       
       3432.0581             68.2092               25.662       
       3445.3703             68.6908               25.518       
       3462.5971              69.05                25.335       
       3479.9101             69.3243               25.153       
       3497.3097             69.5588               24.973       
       3514.7962             69.7692               24.795       
       3532.3702              69.963               24.618       
       3550.0321             70.1445               24.443       
       3567.7822             70.3163               24.269       
       3585.6211             70.4792               24.094       
       3603.5492             70.6344               23.92        
        3621.567             70.7828               23.748       
       3639.6748             70.9251               23.577       
       3657.8732             71.0619               23.407       
       3676.1626             71.1939               23.239       
       3694.5434             71.3213               23.073       
       3713.0161             71.4445               22.908       
       3731.5812             71.5639               22.744       
       3750.2391             71.6797               22.582       
       3768.9903             71.7921               22.421       
       3787.8352             71.9013               22.262       
       3806.7744             72.0075               22.104       
       3825.8083             72.1108               21.947       
       3844.9373             72.2114               21.792       
        3864.162             72.3095               21.638       
       3883.4828             72.4051               21.485       
       3902.9002             72.4984               21.333       
       3922.4147             72.5895               21.183       
       3942.0268             72.6785               21.034       
       3961.7369             72.7655               20.886       
       3981.5456             72.8506               20.74        
       4001.4533             72.9338               20.595       
       4021.4606             73.0154               20.451       
       4041.5679             73.0954               20.308       
       4061.7757              73.174               20.166       
       4082.0846             73.2512               20.025       
        4102.495             73.3271               19.884       
       4123.0075              73.401               19.743       
       4143.6226              73.473               19.603       
       4164.3407             73.5433               19.464       
       4185.1624              73.612               19.326       
       4206.0882             73.6791               19.19        
       4227.1186             73.7447               19.054       
       4248.2542              73.809               18.919       
       4269.4955             73.8719               18.786       
        4290.843             73.9335               18.653       
       4312.2972             73.9939               18.522       
       4333.8587             74.0532               18.391       
        4355.528             74.1114               18.262       
       4377.3056             74.1685               18.133       
       4399.1921             74.2247               18.006       
       4421.1881             74.4747               17.876       
        4443.294             74.5292               17.742       
       4465.5105              74.582               17.61        
       4487.8381              74.633               17.478       
       4510.2772             74.6823               17.347       
       4532.8286             74.7301               17.218       
       4555.4928             74.7765               17.089       
       4578.2702             74.8214               16.962       
       4601.1616             74.9982               16.831       
       4624.1674             75.0404               16.701       
       4647.2882             75.0809               16.572       
       4670.5247             75.1197               16.444       
       4693.8773              75.157               16.317       
       4717.3467             75.1929               16.191       
       4740.9334             75.2273               16.067       
       4764.6381             75.2604               15.943       
       4788.4613             75.2922               15.821       
       4812.4036             75.3228                15.7        
       4836.4656             75.3522               15.58        
       4860.6479             75.3804               15.46        
       4884.9512             75.4076               15.342       
       4909.3759             75.4337               15.225       
       4933.9228             75.4588               15.109       
       4958.5924              75.483               14.994       
       4983.3854             75.5061               14.881       
       5008.3023             75.5284               14.768       
       5033.3438             75.5498               14.656       
       5058.5105             75.5703               14.545       
       5083.8031              75.59                14.435       
       5109.2221              75.609               14.326       
       5134.7682             75.6271               14.218       
       5160.4421             75.6445               14.111       
       5186.2443             75.6612               14.005       
       5212.1755             75.6772               13.899       
       5238.2364             75.6925               13.795       
       5264.4276             75.7071               13.692       
       5290.7497             75.7212               13.589       
       5317.2034             75.7346               13.488       
       5343.7895             75.7475               13.387       
       5370.5084             75.7598               13.288       
       5397.3609             75.7716               13.189       
       5424.3477             75.7828               13.091       
       5451.4695             75.7936               12.994       
       5478.7268              75.804               12.897       
       5506.1205             75.9134               12.799       
       5533.6511             75.9232               12.701       
       5561.3193             75.9322               12.603       
       5589.1259             75.9404               12.507       
       5617.0716             75.9478               12.411       
       5645.1569             75.9546               12.316       
       5673.3827             75.9606               12.222       
       5701.7496              75.966               12.129       
       5730.2584             75.9708               12.036       
       5758.9096              75.975               11.945       
       5787.7042             75.9785               11.854       
       5816.6427             75.9816               11.764       
       5845.7259             75.9841               11.675       
       5874.9546              75.986               11.586       
       5904.3293             75.9875               11.499       
        5933.851             75.9884               11.412       
       5963.5202              75.989               11.326       
       5993.3378              75.989               11.24        
       6023.3045             75.9886               11.156       
        6053.421             75.9878               11.072       
       6083.6882             75.9865               10.989       
       6114.1066             75.9849               10.907       
       6144.6771             75.9829               10.825       
       6175.4005             75.9805               10.744       
       6206.2775             75.9777               10.664       
       6237.3089             75.9746               10.584       
       6268.4954             75.9712               10.506       
       6299.8379             76.0088               10.427       
       6331.3371             76.0049               10.347       
       6362.9938             76.0006               10.268       
       6394.8088             75.9959               10.19        
       6426.7828             75.9906               10.112       
       6458.9167             75.9849               10.035       
       6491.2113             75.9788               9.9592       
       6523.6674             75.9722               9.8836       
       6556.2857             75.9653               9.8088       
       6589.0671             75.9579               9.7346       
       6622.0125             75.9502               9.6608       
       6655.1225             75.9421               9.5874       
       6688.3981             75.9337               9.5146       
       6721.8401             75.9248               9.4424       
       6755.4493             75.9156               9.3709       
       6789.2266             75.9061                9.3         
       6823.1727             75.8961               9.2297       
       6857.2886             75.9023                9.16        
        6891.575             75.8919               9.0904       
       6926.0329              75.881               9.0214       
       6960.6631             75.8698               8.953        
       6995.4664             75.8583               8.8852       
       7030.4437             75.8463               8.8181       
       7065.5959              75.834               8.7515       
       7100.9239             75.8214               8.6855       
       7136.4285             75.8084                8.62        
       7172.1107             75.7951               8.5551       
       7207.9712             75.7815               8.4908       
       7244.0111             75.7676               8.4271       
       7280.2311             75.7533               8.3639       
       7316.6323             75.7387               8.3012       
       7353.2155             75.7238               8.2391       
       7389.9815             75.7086               8.1776       
       7426.9314             75.6931               8.1165       
       7464.0661             75.6773               8.056        
       7501.3864             75.6611               7.9961       
       7538.8934             75.6447               7.9366       
       7576.5878              75.628               7.8776       
       7614.4708              75.611               7.8192       
       7652.5431             75.5937               7.7613       
       7690.8058             75.5761               7.7038       
       7729.2599             75.5582               7.6469       
       7767.9062              75.54                7.5904       
       7806.7457             75.5215               7.5344       
       7845.7794             75.5028               7.4789       
       7885.0083             75.4837               7.4239       
       7924.4334             75.4644               7.3693       
       7964.0555             75.4447               7.3152       
       8003.8758             75.4248               7.2616       
       8043.8952             75.4046               7.2084       
       8084.1147             75.3841               7.1557       
       8124.5352             75.3633               7.1035       
       8165.1579             75.3422               7.0516       
       8205.9837             75.3208               7.0002       
       8247.0136             75.2992               6.9493       
       8288.2487             75.2772               6.8988       
       8329.6899              75.255               6.8487       
       8371.3384             75.2325               6.799        
       8413.1951             75.2097               6.7498       
        8455.261             75.1867               6.7009       
       8497.5373             75.1634               6.6525       
        8540.025             75.1399               6.6045       
        9030.794             74.9382               6.0726       
        9653.919             74.4523               5.4359       
        10320.04             73.7229               4.8556       
        11032.12             72.5078               4.3394       
        11680.33             69.8967               3.948        
        11793.34             68.6327               3.8861       
        11859.11             67.1655               3.8509       
        11906.78             63.9647               3.8253       
        11978.29             67.1528               10.042       
        12157.07             69.9622               9.7808       
        12607.08             71.8985               9.1691       
        13458.93             72.0537               8.1755       
        13476.97             72.0042               8.1564       
        13664.93              70.849               7.9615       
        13719.87             69.2676               7.9054       
        13802.27             70.9132               10.981       
        14008.27             72.3549               10.704       
        14065.74              72.522               10.629       
        14281.04             72.5469               10.355       
        14338.45             71.8746               10.284       
        14406.88             72.7129               11.821       
        14424.56              72.902               11.798       
        14639.86             74.0777               11.53        
        15400.95             75.8488               10.657       
        16463.62             77.0993               9.5849       
        17599.61             77.8742               8.619        
        18813.98             78.3937               7.7427       
        20112.15             78.7403               6.951        
        21499.88             78.9707               6.2427       
        22983.38             79.1216               5.6095       
        24569.23             79.2758               5.0398       
        26264.5              79.3291               4.5271       
        28076.76             79.4002               4.0394       
        30014.05             79.4096               3.5892       
        32085.02             79.3581               3.1891       
        34298.89             79.2868               2.8358       
        36665.51              79.203               2.5237       
        39195.43             79.1108               2.2477       
        41899.92             79.0127               2.0036       
        44791.01              78.91                1.7874       
        47881.59              78.803               1.5957       
        51185.42             78.6909               1.4256       
        54717.21             78.5707               1.2719       
        58492.7              78.4367               1.1355       
        62528.7              78.2813               1.0126       
        66843.18             78.0842              0.89999       
        71455.36             77.8014              0.80018       
        76385.78             77.2704              0.71163       
        79110.4              76.5488              0.66924       
        80321.27             75.4855              0.65138       
        80644.17             74.2123              0.64651       
        81128.52             75.5407               3.1459       
        81656.4               76.237               3.1142       
        82339.4              76.7032               3.074        
        87290.69             77.9164               2.8038       
        93313.74             78.4584               2.5207       
        99752.39             78.7653               2.262        
        106635.3             78.9609               2.0288       
        113993.1             79.0922               1.8193       
        121858.7              79.181               1.6277       
        130266.9             79.2389               1.456        
        139255.3             79.2755               1.3024       
        148864.0             79.2969               1.1649       
        159135.6             79.3074               1.0421       
        170115.9             79.3102              0.93205       
        181853.9             79.3069              0.83281       
        194401.8              79.299              0.74421       
        207815.6              79.288              0.66511       
        222154.8              79.275              0.59448       
        237483.5             79.2607               0.5314       
        253869.9             79.2457              0.47505       
        271386.9             79.2304              0.42472       
        290112.6             79.2152              0.37976       
        310130.4             79.2002              0.33958       
        331529.4             79.1857              0.30368       
        354404.9             79.1718               0.2716       
        378858.8             79.1585              0.24292       
        405000.1             79.1459              0.21729       
        432945.1              79.134              0.19438       
