# Ba
# Form Factors from Chantler Tables
# DOI: https://dx.doi.org/10.18434/T4HS32
# automatically retrived 2019-02-28 using URL https://physics.nist.gov/cgi-bin/ffast/ffast.pl

# For f_rel the second term, which is 3/5th of the Cromer-Liberman value, is used as suggested by Chantler.
# Real and imaginary part of the formfactors are: f'(E)=f1(E)+f_rel+f_NT and f''(E)=f2(E)
# see also original publication:  https://doi.org/10.1063/1.555974

# Z = 56
# f_rel = -0.4326 e/atom  (Relativistic correction estimate)
# f_NT = -0.012527 e/atom (Nuclear Thomson correction)


#        E (eV)            f1 (e/atom)          f2 (e/atom)     
         10.69               14.3338                0.0         
        11.42761             13.9405                0.0         
        12.21612             13.3645                0.0         
        13.05903             12.4158                0.0         
        13.9601              10.3261                0.0         
         14.308               8.3293                0.0         
         14.527              4.62144                0.0         
        14.5854              0.16426                0.0         
         14.673              4.86407               8.774        
         14.892              8.93756               8.4767       
        14.92335             9.23744               8.4354       
        15.95306             12.7559               7.2225       
         16.268              12.5921               6.899        
         16.517               11.169                6.65        
        16.5834              9.00419               6.5846       
         16.683              11.5742               10.979       
         16.932              14.0476               10.596       
        17.05382             14.6943               10.413       
        18.23053             17.7878               8.818        
        19.48844             19.2404               7.391        
        20.83314             20.0237               6.1288       
        22.27063             20.4129               5.0483       
        23.8073              20.5556               4.145        
        25.45001             20.5428               3.4028       
        27.20606             20.4336               2.8003       
        29.08327             20.2658               2.315        
        31.09002             20.0629               1.926        
        33.23523             19.8383               1.6149       
        35.52846             19.5981               1.3662       
        37.97993             19.3408               1.1671       
         38.318              19.3043               1.1438       
        38.9045              19.2365               1.1055       
        39.0609              19.2113               1.0957       
        39.2955              19.1959               1.0993       
         39.882              19.1437               1.0663       
        40.60054             19.0744               1.0288       
        43.40198             18.7969              0.90911       
        46.39671             18.4984              0.81645       
        49.59809             18.1587              0.74504       
        53.02035              17.771              0.69046       
        56.67876             17.3012              0.64907       
        60.58959             16.7134              0.61794       
        64.77028             15.9402              0.59492       
        69.23942             14.8562               0.578        
        74.01695             13.1961              0.56569       
        79.12411             10.2689              0.55668       
        84.58368             3.36627              0.54997       
         88.102              -10.8739             0.54668       
        89.4505              -33.558              0.54558       
        89.8101              -63.6243              0.5453       
        90.41995             -22.5694              58.904       
         90.65               -14.8234               56.3        
         91.698              -2.34496              45.897       
        92.0375              -4.39435              42.984       
        92.4075              -19.7423              40.033       
        92.9625              8.16737               73.068       
         94.35               32.6022               56.274       
        96.65893             42.9232               36.802       
        103.3284             40.1512               12.04        
        110.4581             34.0274               5.2283       
        118.0797             30.3135               3.0158       
        126.2272             28.0185               2.1488       
        134.9368             26.4755               1.7723       
        144.2475              25.342               1.6134       
        154.2005              24.43                1.572        
        164.8404             23.6073               1.6076       
        176.2144             22.6102               1.7039       
        178.8015             22.1082               1.7322       
        179.5203             21.6302               1.7405       
        180.5985             22.0139               2.6163       
        183.294              22.2568               2.6598       
        187.964              22.2328               2.7399       
        188.3732             22.2205               2.7472       
        190.841              22.0787               2.7919       
        191.6082             21.9129               2.8061       
        192.759              22.0571               3.1367       
        195.636              22.1562               3.1955       
        201.3709             22.1642               3.3173       
        215.2655             22.0525               3.6322       
        230.1188              21.907               3.9889       
        245.997              21.6928               4.3789       
         247.94              21.6416               4.4266       
        251.735               21.425               4.5193       
        252.747              21.1727               4.5439       
        254.265              21.4262               5.0752       
         258.06              21.6501               5.1705       
        262.9708             21.7706               5.2924       
        281.1158             22.0321               5.7251       
        300.5128              22.281               6.1432       
        321.2482             22.5628               6.528        
        343.4143             22.8757               6.8637       
        367.1099             23.2063               7.1372       
        392.4405             23.5321               7.3318       
        419.5189             23.8184               7.4408       
        448.4657             24.0286               7.4684       
        479.4098             24.1237               7.4226       
        512.4891             24.0578               7.3142       
        547.8508             23.7758               7.1546       
        585.6525             23.1801               6.9554       
        626.0625             22.1087               6.727        
        669.2609             20.2275               6.4787       
        715.4399             16.5998               6.2181       
        764.8052             5.88726               5.9507       
        765.086              5.75176               5.9492       
        776.7965             -4.33866              5.8879       
        780.178              -17.7417              5.8703       
        784.6035             -5.78321              25.816       
        792.1195             -2.80807              25.455       
        795.3039             -7.78728              25.304       
        796.314              -12.8192              38.538       
        800.0805              1.2116               38.257       
        812.022              10.7864               37.389       
        817.5768             13.3265               36.997       
        873.9896             25.8483               33.381       
        934.2948             31.3908               30.314       
        998.7612             34.3674               27.662       
        1040.956             34.7296               26.088       
        1056.889             33.4815               25.535       
        1061.138             31.5154               25.392       
        1067.676             33.8505               29.274       
        1083.444             36.0736               28.639       
        1113.966             37.6618               27.474       
        1131.017             37.6671               26.916       
        1135.563             36.9535               26.773       
        1141.345              37.967               28.357       
        1142.384             38.1225               28.322       
        1159.434             39.5218               27.758       
        1220.098             41.7996               26.003       
        1266.944             42.7472               24.88        
        1286.336             42.7243               24.455       
        1291.507             42.2596               24.345       
        1299.264             43.0282               25.333       
        1304.285             43.3576               25.227       
        1318.656             43.9869               24.929       
        1394.281             45.9814               23.285       
        1490.486             47.5979               21.37        
        1593.329             48.7836               19.565       
        1703.269             49.6753               17.896       
        1820.795             50.3359               16.327       
        1946.43              50.8105               14.895       
        2080.733             51.1484                13.6        
        2224.304              51.485               12.407       
        2377.781             51.6848               11.31        
        2541.848             51.7595               10.315       
        2717.235             51.7921               9.4155       
        2904.724             51.7628               8.6035       
        3105.15              51.7419               7.8048       
        3319.406             51.5927               6.9934       
        3548.445             51.3222               6.2655       
        3793.288             50.9469               5.6213       
        4055.024             50.4516               5.0525       
        4334.821             49.7836               4.5498       
        4633.924             48.8026               4.1024       
        4953.664             46.9999               3.6853       
        5142.06               44.543               3.4671       
        5220.765             41.3094               3.3825       
        5241.753             37.5721               3.3605       
        5273.235             41.2613               10.586       
        5295.467             42.6868               10.489       
        5351.94              44.3928               10.25        
        5511.128             45.6654               9.6197       
        5595.482             44.7233               9.3495       
        5617.976             43.0095               9.2804       
        5651.718             45.0562                12.8        
        5660.855             45.4367               12.76        
        5736.072             47.0616               12.435       
        5869.024              48.191               11.901       
        5958.856             48.0966               11.578       
        5982.811             47.3384               11.497       
        6018.744             48.4624               13.172       
        6051.453             49.0789               13.061       
        6108.576             49.7589               12.872       
        6469.004             51.9659               11.807       
        6915.365             53.4251               10.692       
        7392.525             54.3968               9.6457       
        7902.609              55.066               8.6788       
        8447.89              55.5333               7.8032       
        9030.794              55.888               7.0067       
        9653.919              56.112               6.2554       
        10320.04             56.2453               5.5897       
        11032.12             56.3911               4.9844       
        11793.34             56.4523               4.4369       
        12607.08             56.4722                3.94        
        13476.97             56.4235               3.4989       
        14406.88             56.3541               3.1098       
        15400.95             56.2713               2.7659       
        16463.62             56.1795               2.462        
        17599.61             56.0818               2.1935       
        18813.98             55.9801               1.956        
        20112.15             55.8754               1.7459       
        21499.88             55.7679               1.5597       
        22983.38             55.6571               1.3938       
        24569.23             55.5396               1.2429       
        26264.5              55.4124               1.1072       
        28076.76             55.2621               0.9756       
        30014.05              55.07               0.85752       
        32085.02             54.8096              0.75436       
        34298.89             54.3908              0.66418       
        36665.51             53.2415              0.58526       
        36691.79              53.212              0.58447       
        37253.4              51.9948              0.56795       
        37403.16             50.5352              0.56367       
        37627.8               52.012               3.4315       
        38189.41             53.3471               3.3512       
        39195.43              54.193               3.215        
        41899.92             55.1167               2.8831       
        44791.01             55.5719               2.5829       
        47881.59             55.8522               2.3128       
        51185.42             56.0387               2.0659       
        54717.21             56.1622               1.8434       
        58492.7              56.2448               1.6446       
        62528.7              56.2991               1.4669       
        66843.18             56.3333               1.3083       
        71455.36             56.3534               1.1668       
        76385.78             56.3946               1.0396       
        81656.4              56.3972              0.92298       
        87290.69             56.3892              0.81666       
        93313.74             56.3757              0.72265       
        99752.39             56.3589              0.63952       
        106635.3              56.34                0.566        
        113993.1              56.32               0.50098       
        121858.7             56.2996              0.44346       
        130266.9             56.2792              0.39257       
        139255.3             56.2592              0.34755       
        148864.0             56.2398              0.30771       
        159135.6             56.2212              0.27246       
        170115.9             56.2034              0.24145       
        181853.9             56.1868              0.21406       
        194401.8             56.1713              0.18978       
        207815.6             56.1568              0.16827       
        222154.8             56.1433              0.14921       
        237483.5             56.1308              0.13231       
        253869.9             56.1192              0.11733       
        271386.9             56.1085              0.10406       
        290112.6             56.0987              0.092287      
        310130.4             56.0897              0.081854      
        331529.4             56.0814              0.072604      
        354404.9             56.0738              0.064402      
        378858.8             56.0669              0.057129      
        405000.1             56.0606              0.050681      
        432945.1             56.0548              0.044962      
