# Bi
# Form Factors from Chantler Tables
# DOI: https://dx.doi.org/10.18434/T4HS32
# automatically retrived 2019-02-28 using URL https://physics.nist.gov/cgi-bin/ffast/ffast.pl

# For f_rel the second term, which is 3/5th of the Cromer-Liberman value, is used as suggested by Chantler.
# Real and imaginary part of the formfactors are: f'(E)=f1(E)+f_rel+f_NT and f''(E)=f2(E)
# see also original publication:  https://doi.org/10.1063/1.555974

# Z = 83
# f_rel = -1.1484 e/atom  (Relativistic correction estimate)
# f_NT = -0.018084 e/atom (Nuclear Thomson correction)


#        E (eV)            f1 (e/atom)          f2 (e/atom)     
        6.04651              1.28464                0.0         
        6.139059            -0.180675               0.0         
        6.163738             -1.91459               0.0         
        6.200758            -0.137486              3.402        
        6.293306              1.4089               3.3618       
         10.69               4.97863               2.2826       
        11.42761             4.97869               2.1596       
        12.21612             4.91679               2.0341       
        13.05903             4.76197               1.9063       
        13.9601              4.32198               1.7772       
        14.16222             3.93071               1.7493       
        14.21916             3.46074               1.7415       
        14.30456             3.94974               2.6458       
        14.51806              4.3586               2.5748       
        14.92335              4.5791               2.448        
        15.95306             4.63786               2.1658       
        17.05382             4.45056               1.9095       
        18.23053             4.09469               1.6789       
        19.48844             3.57158               1.4744       
        20.83314             2.85179               1.2942       
        22.27063             1.84894               1.136        
        23.8073              0.279116              0.997        
         23.912              0.127349             0.98848       
         24.278             -0.605839             0.95954       
        24.3756              -1.10786             0.95204       
         24.522             -0.940591              1.7065       
         24.888              -1.08707              1.8034       
        25.45001             -1.64041              1.9899       
         25.97               -2.28637              2.2093       
        26.3675              -2.93846              2.412        
        26.4735              -3.27904              2.4718       
        26.6325              -3.29644              2.9799       
         27.03               -3.63457              3.3173       
        27.20606             -3.82014              3.4805       
        29.08327             -5.89222              5.7491       
        31.09002             -7.62257              9.2212       
        33.23523             -8.35979              13.756       
        35.52846             -7.5755               18.92        
        37.97993             -5.00556              24.015       
        40.60054            -0.772435              28.271       
        43.40198             4.64125               31.078       
        46.39671             10.5467               32.139       
        49.59809              16.248               31.504       
        53.02035             21.2033               29.491       
        56.67876             25.1009               26.556       
        60.58959             27.8531               23.16        
        64.77028             29.5388               19.688       
        69.23942             30.3295               16.411       
        74.01695             30.4572               13.486       
        79.12411             30.0351               10.98        
        84.58368             29.2314               8.8954       
        90.41995              27.816               7.1994       
         90.944               27.606               7.0692       
         92.336               26.609               6.7387       
        92.7072               25.578               6.6542       
         93.264              26.5515               8.4652       
         94.656              27.2752               8.0859       
        96.65893             27.4823               7.5808       
        103.3284             27.1254               6.1948       
        110.4581             26.2374               5.1249       
        114.464              25.4904               4.6628       
        116.216               24.796               4.4852       
        116.6832             24.1212               4.4401       
        117.384               24.717               5.6135       
        118.0797             24.9747               5.5334       
        119.136               25.125               5.4159       
        126.2272             25.0157               4.7387       
        134.9368             24.4093               4.1073       
        144.2475              23.591               3.5964       
        154.2005             22.4846               3.1864       
        154.252              22.4774               3.1846       
        156.114              22.1808               3.1203       
        156.613              22.0759               3.1036       
        157.2426              21.858               3.083        
        158.187              21.8413               3.3158       
        158.662              21.7964               3.3071       
        159.1407             21.7049               3.2986       
        160.0965             21.6729               3.408        
        160.548               21.636               3.4013       
        161.0905              21.572               3.3937       
        161.7381             21.4279               3.3853       
        162.486              21.4394               3.5669       
        162.7095             21.4392               3.5665       
        164.8404             21.3246               3.567        
        165.138              21.3028               3.5678       
        176.2144             20.3011               3.7195       
        188.3732             19.1101               4.1589       
        201.3709             17.8619               4.9263       
        215.2655             16.6344               6.0678       
        230.1188             15.5253               7.6096       
        245.997               14.647               9.5459       
        262.9708             14.1138               11.83        
        281.1158             14.0267               14.375       
        300.5128             14.4493               17.058       
        321.2482             15.4066               19.738       
        343.4143             16.8702               22.267       
        367.1099              18.756               24.511       
        392.4405              20.922               26.362       
        419.5189             23.0901               27.747       
         431.2               23.7719               28.172       
         437.8               23.7625               28.37        
         439.56              23.2706               28.418       
         442.2               24.0733               29.716       
        448.4657             25.0378               29.921       
         448.8               25.0758               29.931       
        454.328              25.6187               30.093       
        461.282              26.0072               30.274       
        463.1364             25.7858               30.319       
        465.918              26.4552               31.184       
        472.872              27.4852               31.369       
        479.4098              28.236               31.525       
         500.0                 32.1                31.903       
         502.5               32.3386               31.937       
        505.0125             32.5759               31.97        
       507.53756             32.8121                32.0        
       510.07525             33.0473               32.028       
       512.62563             33.2815               32.054       
       515.18875             33.5148               32.078       
        517.7647             33.7472               32.098       
       520.35352             33.9786               32.117       
       522.95529             34.2089               32.133       
       525.57007             34.4383               32.147       
       528.19792             34.6666               32.158       
       530.83891             34.8938               32.168       
        533.4931             35.1199               32.174       
       536.16057             35.3449               32.179       
       538.84137             35.5688               32.181       
       541.53558             35.7915               32.181       
       544.24325             36.0129               32.179       
       546.96447             36.2332               32.174       
       549.69929             36.4521               32.168       
       552.44779             36.6698               32.159       
       555.21003             36.8861               32.148       
       557.98608              37.101               32.135       
       560.77601             37.3145               32.12        
       563.57989             37.5265               32.103       
       566.39779             37.7371               32.084       
       569.22978             37.9461               32.063       
       572.07593             38.1535               32.04        
        574.9363             38.3592               32.015       
       577.81099             38.5633               31.989       
       580.70004             38.7657               31.96        
       583.60354             38.9662               31.929       
       586.52156             39.1649               31.897       
       589.45417             39.3617               31.863       
       592.40144             39.5565               31.827       
       595.36345             39.7493               31.79        
       598.34026             39.9399               31.751       
       601.33196             40.1284               31.71        
       604.33862             40.3145               31.668       
       607.36032             40.4983               31.624       
       610.39712             40.6795               31.579       
        613.4491             40.8581               31.532       
       616.51635              41.034               31.483       
       619.59893             41.2068               31.433       
       622.69693             41.3766               31.382       
       625.81041              41.543               31.33        
       628.93946             41.7058               31.276       
       632.08416             41.8647               31.221       
       635.24458             42.0192               31.164       
        638.4208              42.169               31.106       
       641.61291             42.3134               31.046       
       644.82097             42.4516               30.986       
       648.04508             42.5827               30.924       
        651.2853             42.7053               30.86        
       654.54173             42.8177               30.796       
       657.81444             42.9172               30.73        
       661.10351             42.9999               30.663       
       664.40903             43.0593               30.594       
       667.73107             43.0839               30.525       
       671.06973             43.0497               30.455       
       674.42508             42.8903               30.383       
        677.7972             42.2211               30.311       
       678.09211             42.0486               30.304       
       679.70789             42.1317               32.165       
       681.18619              42.835               32.134       
       684.59212             43.5588               32.063       
       688.01508             44.0154               31.99        
       691.45515             44.3798               31.917       
       694.91243             44.6967               31.842       
       698.38699              44.984               31.768       
       701.87893              45.251               31.692       
       705.38832             45.5031               31.616       
       708.91526             45.7436               31.54        
       712.45984             45.9749               31.463       
       716.02214             46.1985               31.386       
       719.60225             46.4157               31.308       
       723.20026             46.6274               31.23        
       726.81626             46.8344               31.151       
       730.45034             47.0373               31.073       
        734.1026             47.2366               30.994       
       737.77311             47.4328               30.915       
       741.46197             47.6263               30.836       
       745.16928             47.8169               30.752       
       748.89513              48.003               30.66        
       752.63961             48.1852               30.568       
        756.4028             48.3634               30.476       
       760.18482             48.5379               30.383       
       763.98574             48.7087               30.291       
       767.80567             48.8759               30.197       
        771.6447             49.0392               30.104       
       775.50292             49.1987               30.01        
       779.38044             49.3538               29.916       
       783.27734             49.5042               29.822       
       787.19373             49.6475               29.721       
       791.12969             49.7815               29.619       
       795.08534             49.9021               29.517       
       799.06077             49.9987               29.414       
       803.05607             50.0244               29.312       
       804.18063             49.9786               29.283       
       806.41936              50.064               29.629       
       807.07135             50.1476               29.612       
       811.10671             50.4519               29.511       
       815.16224             50.6701               29.41        
       819.23806             50.8627               29.308       
       823.33425              51.042               29.207       
       827.45092             51.2126               29.105       
       831.58817             51.3768               29.003       
       835.74611             51.5359               28.902       
       839.92484             51.6907                28.8        
       844.12447             51.8418               28.698       
       848.34509             51.9894               28.596       
       852.58682              52.134               28.494       
       856.84975             52.2756               28.393       
        861.134              52.4144               28.291       
       865.43967             52.5506               28.19        
       869.76687             52.6841               28.089       
        874.1157              52.815               27.988       
       878.48628             52.9434               27.887       
       882.87871             53.0692               27.786       
        887.2931             53.1922               27.686       
       891.72957             53.3124               27.585       
       896.18822             53.4296               27.485       
       900.66916             53.5434               27.386       
        905.1725             53.6534               27.286       
       909.69837             53.7589               27.187       
       914.24686             53.8587               27.088       
       918.81809             53.9511               26.99        
       923.41218             54.0323               26.892       
       928.02924             54.0948               26.794       
       932.66939              54.116               26.697       
       936.87713             53.9831               26.609       
       937.33274             53.9226                26.6        
       939.52286             54.0533               27.094       
        942.0194             54.3016               27.044       
        946.7295             54.5639               26.948       
       951.46315             54.7639               26.854       
       956.22046             54.9407               26.76        
       961.00156             55.1053               26.666       
       965.80657             55.2626               26.573       
        970.6356             55.4152               26.48        
       975.48878             55.5648               26.388       
       980.36623             55.7127               26.296       
       985.26806              55.86                26.205       
        990.1944             56.0079               26.114       
       995.14537             56.1581               26.024       
       1000.1211             56.3129               25.933       
       1005.1217             56.4625               25.777       
       1010.1473             56.6013               25.622       
        1015.198             56.7321               25.468       
        1020.274             56.8564               25.316       
       1025.3754             56.9753               25.165       
       1030.5023             57.0893               25.015       
       1035.6548              57.199               24.866       
       1040.8331             57.3047               24.718       
       1046.0372             57.4067               24.572       
       1051.2674             57.5052               24.426       
       1056.5238             57.6005               24.282       
       1061.8064             57.6928               24.139       
       1067.1154             57.7823               23.997       
        1072.451              57.869               23.856       
       1077.8132             57.9532               23.717       
       1083.2023             58.0349               23.578       
       1088.6183             58.1143               23.441       
       1094.0614             58.1914               23.305       
       1099.5317             58.2664               23.17        
       1105.0294             58.3393               23.036       
       1110.5545             58.4103               22.903       
       1116.1073             58.4793               22.771       
       1121.6878             58.5466               22.64        
       1127.2963             58.6121               22.511       
       1132.9328             58.6759               22.382       
       1138.5974             58.7382               22.255       
       1144.2904             58.7989               22.128       
       1150.0119             58.8581               22.002       
       1155.7619             58.9154               21.875       
       1161.5407              58.971               21.749       
       1167.3484             59.0249               21.625       
       1173.1852             59.0772               21.501       
       1179.0511             59.1279               21.379       
       1184.9464             59.1772               21.257       
       1190.8711             59.2249               21.136       
       1196.8254             59.2713               21.016       
       1202.8096             59.3162               20.898       
       1208.8236             59.3598               20.78        
       1214.8677             59.4021               20.663       
       1220.9421              59.443               20.547       
       1227.0468             59.4828               20.432       
        1233.182             59.5212               20.318       
       1239.3479             59.5585               20.204       
       1245.5447             59.5946               20.092       
       1251.7724             59.6296               19.981       
       1258.0312             59.6635               19.87        
       1264.3214             59.6962               19.76        
        1270.643             59.7278               19.651       
       1276.9962             59.7585               19.544       
       1283.3812              59.788               19.436       
       1289.7981             59.8166               19.33        
       1296.2471             59.8441               19.225       
       1302.7283             59.8707               19.12        
        1309.242             59.8963               19.016       
       1315.7882              59.921               18.913       
       1322.3671             59.9584               18.811       
        1328.979             59.9815               18.71        
       1335.6239             60.0036               18.609       
        1342.302             60.0249               18.51        
       1349.0135             60.0454               18.411       
       1355.7586             60.0651               18.312       
       1362.5374             60.0839               18.215       
        1369.35              60.1018               18.117       
       1376.1968             60.1188               18.02        
       1383.0778             60.1348               17.923       
       1389.9932             60.1498               17.828       
       1396.9431             60.1713               17.733       
       1403.9278             60.1847               17.639       
       1410.9475             60.1974               17.545       
       1418.0022             60.2091               17.453       
       1425.0922              60.22                17.361       
       1432.2177             60.2301               17.269       
       1439.3788             60.2393               17.179       
       1446.5757             60.2477               17.089       
       1453.8086             60.2553               16.999       
       1461.0776             60.2621               16.911       
        1468.383             60.2681               16.823       
       1475.7249             60.2732               16.736       
       1483.1035             60.2776               16.649       
        1490.519             60.2813               16.563       
       1497.9716             60.2841               16.478       
       1505.4615             60.2861               16.393       
       1512.9888             60.2874               16.31        
       1520.5537             60.2879               16.226       
       1528.1565             60.2877               16.143       
       1535.7973             60.2867               16.061       
       1543.4763              60.285               15.98        
       1551.1937             60.2825               15.899       
       1558.9496             60.2792               15.819       
       1566.7444             60.2752               15.739       
       1574.5781             60.2705               15.66        
        1582.451             60.2651               15.582       
       1590.3633             60.2588               15.504       
       1598.3151             60.2518               15.426       
       1606.3066             60.2439               15.349       
       1614.3382             60.2352               15.272       
       1622.4099             60.2257               15.196       
       1630.5219             60.2154               15.12        
       1638.6745             60.2043               15.045       
       1646.8679             60.1923               14.971       
       1655.1022             60.1796               14.897       
       1663.3777              60.166               14.824       
       1671.6946             60.1517               14.751       
       1680.0531             60.1365               14.679       
       1688.4534             60.1205               14.607       
       1696.8956             60.1037               14.536       
       1705.3801              60.086               14.465       
        1713.907             60.0676               14.395       
       1722.4766             60.0483               14.326       
       1731.0889             60.0282               14.257       
       1739.7444             60.0073               14.188       
       1748.4431             59.9856               14.12        
       1757.1853             59.9631               14.052       
       1765.9712             59.9395               13.978       
       1774.8011             59.9144               13.902       
       1783.6751             59.8877               13.826       
       1792.5935             59.8594               13.751       
       1801.5565             59.8295               13.676       
       1810.5642              59.798               13.602       
       1819.6171              59.765               13.529       
       1828.7151             59.7304               13.456       
       1837.8587             59.6942               13.383       
        1847.048             59.6564               13.311       
       1856.2833             59.6169               13.239       
       1865.5647             59.5755               13.161       
       1874.8925             59.5319               13.085       
        1884.267             59.4862               13.009       
       1893.6883             59.4382               12.933       
       1903.1567             59.3881               12.858       
       1912.6725             59.3357               12.784       
       1922.2359              59.281               12.71        
       1931.8471             59.2239               12.636       
       1941.5063             59.1646               12.564       
       1951.2138             59.1028               12.491       
       1960.9699             59.0385               12.42        
       1970.7747             58.9717               12.348       
       1980.6286             58.9024               12.278       
       1990.5318             58.8304               12.207       
       2000.4844             58.7556               12.138       
       2010.4868              58.678               12.069       
       2020.5393             58.5976                12.0        
        2030.642             58.5141               11.932       
       2040.7952             58.4292               11.864       
       2050.9992             58.3394               11.797       
       2061.2542             58.2464               11.73        
       2071.5604             58.1498               11.664       
       2081.9182             58.0497               11.598       
       2092.3278             57.9459               11.533       
       2102.7895             57.8381               11.468       
       2113.3034             57.7263               11.404       
       2123.8699             57.6102               11.34        
       2134.4893             57.4896               11.277       
       2145.1617             57.3644               11.214       
       2155.8875             57.2342               11.151       
        2166.667             57.0989               11.089       
       2177.5003              56.958               11.028       
       2188.3878             56.8114               10.967       
       2199.3297             56.6587               10.906       
       2210.3264             56.4995               10.845       
        2221.378             56.3335               10.785       
       2232.4849              56.16                10.726       
       2243.6473             55.9788               10.667       
       2254.8656             55.7891               10.608       
       2266.1399             55.5905               10.55        
       2277.4706             55.3822               10.492       
       2288.8579             55.1635               10.434       
       2300.3022             54.9335               10.377       
       2311.8037             54.6912               10.32        
       2323.3628             54.4357               10.264       
       2334.9796             54.1655               10.208       
       2346.6545             53.8793               10.153       
       2358.3878             53.5754               10.098       
       2370.1797             53.2519               10.043       
       2382.0306             52.9065               9.9884       
       2393.9407             52.5365               9.9344       
       2405.9104             52.1386               9.8809       
        2417.94              51.7125               9.8276       
       2430.0297             51.2462               9.7748       
       2442.1798             50.7372               9.7223       
       2454.3907             50.1776               9.6702       
       2466.6627             49.5575               9.6184       
        2478.996             48.8632               9.567        
        2491.391             48.0758               9.516        
       2503.8479             47.1678               9.4653       
       2516.3672             46.0971               9.4149       
        2528.949             44.7936               9.3649       
       2541.5938             43.1265               9.3153       
       2554.3017             40.8023               9.266        
       2567.0732             36.8771               9.217        
       2578.8933             21.2884               9.1722       
       2579.9086             16.5394               26.074       
       2580.3069               21.0                26.068       
       2592.8082             36.5808               25.879       
       2605.7722             39.9542               25.686       
       2618.8011             41.7054               25.495       
       2631.8951             42.6865               25.305       
       2645.0545             43.1094               25.117       
       2658.2798             42.9465               24.93        
       2671.5712             41.8129               24.745       
       2684.9291              36.362               24.561       
       2686.8259             32.0847               24.535       
       2688.3739             32.0049               35.686       
       2698.3537              41.989               35.482       
       2711.8455             45.6172               35.209       
       2725.4047             47.8545               34.937       
       2739.0317             49.5441               34.667       
       2752.7269             50.9266               34.399       
       2766.4905             52.1068               34.133       
        2780.323             53.1409               33.87        
       2794.2246             54.0629               33.608       
       2808.1957             54.8954               33.349       
       2822.2367             55.6538               33.092       
       2836.3479             56.3498               32.837       
       2850.5296             56.9919               32.584       
       2864.7823             57.5865               32.333       
       2879.1062              58.139               32.084       
       2893.5017             58.6535               31.838       
       2907.9692             59.1332               31.593       
       2922.5091             59.5809               31.35        
       2937.1216             59.9987               31.109       
       2951.8072             60.3882               30.871       
       2966.5662             60.7507               30.633       
       2981.3991             61.0868               30.396       
       2996.3061             61.3972               30.161       
       3011.2876             61.6726               29.914       
        3026.344             61.9164               29.664       
       3041.4758             62.1293               29.417       
       3056.6831             62.3087               29.17        
       3071.9666             62.4498               28.926       
       3087.3264             62.5453               28.683       
        3102.763             62.5832               28.443       
       3118.2768             62.5419               28.205       
       3133.8682             62.3789               27.969       
       3149.5376             61.9902               27.735       
       3165.2853             60.9806               27.503       
       3173.5006             59.2587               27.383       
       3180.2992             59.3216               32.091       
       3181.1117             59.6663               32.077       
       3197.0172             62.3551                31.8        
       3213.0023             63.5185               31.525       
       3229.0673             64.3326               31.253       
       3245.2127             64.9813               30.982       
       3261.4387             65.5301               30.714       
       3277.7459             66.0102               30.448       
       3294.1347             66.4386               30.185       
       3310.6053             66.8256               29.923       
       3327.1584              67.177               29.665       
       3343.7941             67.4976               29.419       
       3360.5131             67.7991               29.18        
       3377.3157             68.0821               28.941       
       3394.2023             68.3479               28.705       
       3411.1733             68.5976               28.472       
       3428.2291             68.8325               28.242       
       3445.3703             69.0534               28.015       
       3462.5971             69.2609               27.79        
       3479.9101             69.4556               27.569       
       3497.3097             69.6376               27.349       
       3514.7962              69.806               27.128       
       3532.3702             69.9603               26.91        
       3550.0321             70.0998               26.695       
       3567.7822             70.2232               26.482       
       3585.6211             70.3284               26.271       
       3603.5492             70.4118               26.063       
        3621.567              70.467               25.857       
       3639.6748             70.4818               25.653       
       3657.8732              70.429               25.451       
       3676.1626              70.225               25.252       
       3690.9034             69.6035               25.093       
       3694.5434             68.9929               25.054       
       3701.6966              69.678               26.777       
       3713.0161             70.4262               26.642       
       3731.5812             71.0039               26.424       
       3750.2391             71.3851               26.208       
       3768.9903             71.6842               25.994       
       3787.8352             71.9352               25.782       
       3806.7744             72.1526               25.573       
       3825.8083             72.3438               25.365       
       3844.9373             72.5125               25.16        
        3864.162              72.66                24.957       
       3883.4828             72.7857               24.758       
       3902.9002             72.8929               24.57        
       3922.4147             72.9798               24.384       
       3942.0268              73.038               24.201       
       3961.7369             73.0478               24.019       
       3981.5456              72.942               23.84        
       3990.4219             72.7708               23.761       
       4001.4533             72.4061               24.711       
        4007.778             72.8852               24.655       
       4021.4606             73.2941               24.535       
       4041.5679             73.6411               24.362       
       4061.7757             73.9004               24.19        
       4082.0846             74.1203               24.021       
        4102.495              74.317               23.853       
       4123.0075             74.4982               23.687       
       4143.6226             74.6677               23.519       
       4164.3407             74.8266               23.35        
       4185.1624             74.9771               23.184       
       4206.0882             75.1204               23.018       
       4227.1186             75.2573               22.854       
       4248.2542             75.3885               22.691       
       4269.4955             75.5147               22.53        
        4290.843             75.6362               22.37        
       4312.2972             75.7536               22.212       
       4333.8587             75.8672               22.055       
        4355.528             75.9772               21.899       
       4377.3056             76.0839               21.745       
       4399.1921             76.1876               21.592       
       4421.1881             76.2884               21.441       
        4443.294             76.3864               21.291       
       4465.5105             76.4819               21.142       
       4487.8381              76.575               20.994       
       4510.2772             76.6658               20.848       
       4532.8286             76.7543               20.702       
       4555.4928             76.8409               20.558       
       4578.2702             76.9254               20.416       
       4601.1616             77.0081               20.274       
       4624.1674             77.0889               20.133       
       4647.2882             77.1682               19.994       
       4670.5247             77.2458               19.855       
       4693.8773             77.3219               19.718       
       4717.3467             77.3966               19.582       
       4740.9334             77.4701               19.447       
       4764.6381             77.5424               19.313       
       4788.4613             77.6137               19.18        
       4812.4036              77.684               19.046       
       4836.4656             77.7525               18.911       
       4860.6479             77.8192               18.777       
       4884.9512             77.8841               18.644       
       4909.3759             77.9474               18.512       
       4933.9228             78.0091               18.381       
       4958.5924             78.0695               18.25        
       4983.3854             78.1284               18.121       
       5008.3023             78.1861               17.993       
       5033.3438             78.2425               17.865       
       5058.5105             78.2977               17.739       
       5083.8031             78.3517               17.613       
       5109.2221             78.4047               17.488       
       5134.7682             78.4567               17.364       
       5160.4421             78.6824               17.241       
       5186.2443             78.7327               17.112       
       5212.1755             78.7814               16.985       
       5238.2364             78.8284               16.858       
       5264.4276             78.8738               16.732       
       5290.7497             78.9177               16.607       
       5317.2034             78.9602               16.483       
       5343.7895             79.0014               16.36        
       5370.5084             79.0413               16.238       
       5397.3609             79.2005               16.114       
       5424.3477             79.2379               15.99        
       5451.4695             79.2736               15.867       
       5478.7268              79.308               15.746       
       5506.1205             79.3409               15.625       
       5533.6511             79.3725               15.505       
       5561.3193             79.4028               15.386       
       5589.1259              79.432               15.269       
       5617.0716             79.4599               15.152       
       5645.1569             79.4867               15.036       
       5673.3827             79.5124               14.922       
       5701.7496             79.5371               14.808       
       5730.2584             79.5608               14.695       
       5758.9096             79.5835               14.583       
       5787.7042             79.6052               14.473       
       5816.6427              79.626               14.363       
       5845.7259             79.6459               14.254       
       5874.9546              79.665               14.146       
       5904.3293             79.6832               14.039       
        5933.851             79.7006               13.933       
       5963.5202             79.7173               13.827       
       5993.3378             79.7332               13.723       
       6023.3045             79.7483               13.62        
        6053.421             79.7627               13.517       
       6083.6882             79.7765               13.416       
       6114.1066             79.7896               13.315       
       6144.6771              79.802               13.215       
       6175.4005             79.8138               13.116       
       6206.2775              79.825               13.018       
       6237.3089             79.8356               12.921       
       6268.4954             79.8457               12.825       
       6299.8379             79.8552               12.729       
       6331.3371             79.8642               12.635       
       6362.9938             79.9627               12.54        
       6394.8088             79.9711               12.445       
       6426.7828             79.9787               12.351       
       6458.9167             79.9856               12.257       
       6491.2113             79.9919               12.164       
       6523.6674             79.9975               12.072       
       6556.2857             80.0026               11.981       
       6589.0671              80.007               11.891       
       6622.0125             80.0109               11.801       
       6655.1225             80.0142               11.713       
       6688.3981              80.017               11.625       
       6721.8401             80.0193               11.538       
       6755.4493             80.0211               11.451       
       6789.2266             80.0224               11.365       
       6823.1727             80.0232               11.281       
       6857.2886             80.0236               11.196       
        6891.575             80.0235               11.113       
       6926.0329              80.023               11.03        
       6960.6631             80.0221               10.948       
       6995.4664             80.0208               10.867       
       7030.4437             80.0192               10.787       
       7065.5959             80.0171               10.707       
       7100.9239             80.0147               10.628       
       7136.4285             80.0119               10.549       
       7172.1107             80.0087               10.472       
       7207.9712             80.0053               10.395       
       7244.0111             80.0015               10.318       
       7280.2311             79.9974               10.243       
       7316.6323              79.993               10.168       
       7353.2155             79.9883               10.093       
       7389.9815             79.9834               10.02        
       7426.9314             80.0187               9.9455       
       7464.0661             80.0134               9.8721       
       7501.3864             80.0077               9.7993       
       7538.8934             80.0016               9.7271       
       7576.5878             79.9953               9.6556       
       7614.4708             79.9885               9.5846       
       7652.5431             79.9815               9.5143       
       7690.8058             79.9742               9.4446       
       7729.2599             79.9666               9.3754       
       7767.9062             79.9587               9.3069       
       7806.7457             79.9505               9.2389       
       7845.7794             79.9421               9.1716       
       7885.0083             79.9334               9.1048       
       7924.4334             79.9245               9.0385       
       7964.0555             79.9153               8.9729       
       8003.8758             79.9218               8.9077       
       8043.8952             79.9123               8.8427       
       8084.1147             79.9025               8.7783       
       8124.5352             79.8925               8.7144       
       8165.1579             79.8822               8.651        
       8205.9837             79.8717               8.5882       
       8247.0136              79.861               8.5259       
       8288.2487             79.8501               8.4638       
       8329.6899              79.839               8.4019       
       8371.3384             79.8277               8.3406       
       8413.1951             79.8163               8.2797       
        8455.261             79.8047               8.2194       
       8497.5373             79.7929               8.1596       
        8540.025             79.7811               8.1004       
        9030.794             79.8266               7.4409       
        9653.919             79.5165               6.6542       
        10320.04             79.0905               5.9606       
        11032.12             78.5285               5.3481       
        11793.34             77.7329               4.7928       
        12607.08             76.3493               4.2946       
        13150.23             74.2164               4.0092       
        13351.51             71.5534               3.9118       
        13405.18             68.4285               3.8865       
        13476.97             71.2647               9.9711       
        13485.69              71.542               9.9601       
        13686.97             74.2949               9.7124       
        14406.88             76.5928               8.8901       
        15400.95             76.4559               7.917        
        15632.54              75.248               7.7141       
        15695.39             73.6894               7.6605       
        15789.66             75.2858               10.675       
        16025.32             76.6589               10.413       
        16059.75             76.7446               10.376       
        16305.56              76.793               10.113       
        16371.11             76.1419               10.044       
        16463.62             77.0952               11.524       
        16469.44             77.1442               11.518       
        16715.25             78.2901               11.259       
        17599.61             80.0284               10.396       
        18813.98             81.2193               9.3528       
        20112.15             81.9554               8.4136       
        21499.88             82.4469               7.5653       
        22983.38             82.7776               6.8012       
        24569.23              83.002               6.1175       
        26264.5              83.1578               5.506        
        28076.76             83.3329               4.9197       
        30014.05             83.3697               4.3877       
        32085.02             83.4019               3.9147       
        34298.89             83.3971               3.4839       
        36665.51             83.3394                3.1         
        39195.43             83.2653               2.7606       
        41899.92             83.1805               2.4602       
        44791.01             83.0883               2.1941       
        47881.59             82.9909               1.9583       
        51185.42             82.8892               1.7492       
        54717.21              82.783               1.5635       
        58492.7              82.6715               1.3982       
        62528.7              82.5504               1.2486       
        66843.18             82.4143               1.116        
        71455.36             82.2538              0.99662       
        76385.78             82.0458               0.8876       
        81656.4              81.7328              0.78887       
        87290.69             81.0362              0.69733       
        88715.38             80.6187              0.67685       
        90073.27             79.5832               0.6582       
        90435.38             78.3443              0.65336       
        90978.53             79.6356               3.0842       
        92336.42             80.7647               3.0142       
        93313.74             81.1246               2.9652       
        99752.39             82.1272               2.6704       
        106635.3              82.565               2.4016       
        113993.1             82.8245               2.157        
        121858.7             82.9931               1.9366       
        130266.9             83.1076               1.7377       
        139255.3             83.1841               1.5569       
        148864.0              83.234               1.3948       
        159135.6             83.2652               1.2495       
        170115.9             83.2831               1.1195       
        181853.9             83.2912               1.003        
        194401.8             83.2924              0.89864       
        207815.6             83.2882               0.805        
        222154.8             83.2803               0.7212       
        237483.5             83.2698              0.64618       
        253869.9             83.2575              0.57903       
        271386.9             83.2441              0.51891       
        290112.6             83.2301              0.46508       
        310130.4             83.2159              0.41687       
        331529.4             83.2018              0.37369       
        354404.9             83.1879              0.33502       
        378858.8             83.1744              0.30037       
        405000.1             83.1615              0.26933       
        432945.1             83.1491              0.24151       
