# Br
# Form Factors from Chantler Tables
# DOI: https://dx.doi.org/10.18434/T4HS32
# automatically retrived 2019-02-28 using URL https://physics.nist.gov/cgi-bin/ffast/ffast.pl

# For f_rel the second term, which is 3/5th of the Cromer-Liberman value, is used as suggested by Chantler.
# Real and imaginary part of the formfactors are: f'(E)=f1(E)+f_rel+f_NT and f''(E)=f2(E)
# see also original publication:  https://doi.org/10.1063/1.555974

# Z = 35
# f_rel = -0.1386 e/atom  (Relativistic correction estimate)
# f_NT = -0.0084102 e/atom (Nuclear Thomson correction)


#        E (eV)            f1 (e/atom)          f2 (e/atom)     
         10.69               7.92654                0.0         
        11.42761             7.91924                0.0         
        12.21612             7.91088                0.0         
        13.05903             7.90131                0.0         
        13.9601              7.89034                0.0         
        14.92335             7.87777                0.0         
        15.95306             7.86335                0.0         
        17.05382              7.8468                0.0         
        18.23053             7.82781                0.0         
        19.48844             7.80599                0.0         
        20.83314              7.7809                0.0         
        22.27063             7.75202                0.0         
        23.8073              7.71875                0.0         
        25.45001             7.68036                0.0         
        27.20606             7.63602                0.0         
        29.08327             7.58469                0.0         
        31.09002             7.52515                0.0         
        33.23523             7.45592                0.0         
        35.52846             7.37517                0.0         
        37.97993             7.28066                0.0         
        40.60054             7.16951                0.0         
        43.40198             7.03807                0.0         
        46.39671             6.88151                0.0         
        49.59809             6.69323                0.0         
        53.02035             6.46382                0.0         
        56.67876             6.17882                0.0         
        60.58959             5.81322                0.0         
        64.77028             5.31115                0.0         
         67.62               4.81939                0.0         
         68.698               4.4921                0.0         
         68.931              4.31259                0.0         
        69.23942             4.34562              0.28116       
         69.345              4.35127              0.28479       
        69.7495              4.30405               0.2991       
        70.0299              4.18899              0.30939       
         70.38                4.2295              0.50909       
        70.4505              4.23437              0.51341       
         71.502              4.18378              0.58193       
        74.01695             3.89155              0.77949       
        79.12411             3.19834               1.3532       
        84.58368             2.50987               2.1831       
        90.41995             1.91726               3.2703       
        96.65893             1.50831               4.5908       
        103.3284             1.35641               6.0881       
        110.4581             1.50912               7.6828       
        118.0797             1.98211               9.2846       
        126.2272             2.75914               10.806       
        134.9368             3.79675               12.171       
        144.2475             5.03081               13.325       
        154.2005             6.38104               14.233       
        164.8404             7.74433               14.882       
        176.2144             8.90219               15.273       
         177.87              8.99692               15.308       
        180.5925             8.93602               15.355       
        181.3185             8.59461               15.366       
        182.4075              9.1103               16.196       
         185.13              9.71976               16.253       
        185.514              9.77847               16.26        
        188.3732             10.0811               16.308       
        189.1107             10.0116               16.318       
        190.2465             10.3475               16.685       
        193.086              10.8833               16.73        
        201.3709             12.0378               16.812       
        215.2655             13.6565               16.809       
        230.1188             15.1121               16.649       
        245.997              16.3544               16.352       
         251.37              16.6405               16.231       
        255.2175             16.6393               16.139       
        256.2435             16.3641               16.114       
        257.7825             16.8336               16.768       
         261.63              17.4254               16.676       
        262.9708             17.5748               16.643       
        281.1158             19.1091               16.171       
        300.5128             20.3881               15.613       
        321.2482             21.5199               14.981       
        343.4143              22.522               14.297       
        367.1099             23.4034               13.578       
        392.4405             24.1723               12.841       
        419.5189             24.8364               12.099       
        448.4657             25.4036               11.362       
        479.4098             25.8819               10.638       
        512.4891             26.2785               9.934        
        547.8508             26.6073               9.2552       
        585.6525             26.8654               8.6047       
        626.0625             27.0567               7.9851       
        669.2609             27.1895               7.3977       
        715.4399             27.2671               6.8432       
        764.8052             27.2913               6.3209       
        817.5768             27.2621               5.8297       
        873.9896             27.1732               5.3703       
         900.0               27.4506               5.1786       
         904.5               27.4412               5.1467       
        909.0225             27.4315               5.1149       
       913.56761             27.4215               5.0832       
       918.13545             27.4111               5.0518       
       922.72613             27.4004               5.0206       
       927.33976             27.3893               4.9895       
       931.97646             27.3778               4.9586       
       936.63634             27.3661               4.9279       
       941.31952             27.3539               4.8974       
       946.02612             27.3414               4.867        
       950.75625             27.3285               4.8368       
       955.51003             27.3153               4.8068       
       960.28758             27.3017               4.777        
       965.08902             27.2877               4.7474       
       969.91446             27.2733               4.718        
       974.76404             27.2586               4.6887       
       979.63786             27.2434               4.6596       
       984.53605             27.2279               4.6307       
       989.45873             27.2119               4.6019       
       994.40602             27.1956               4.5734       
       999.37805             27.1788               4.545        
       1004.3749             27.1723               4.5108       
       1009.3968             27.1649               4.4761       
       1014.4438             27.1553               4.4416       
        1019.516             27.1437               4.4075       
       1024.6136             27.1305               4.3736       
       1029.7367             27.1157               4.3396       
       1034.8853             27.0996               4.3058       
       1040.0598             27.0821               4.2722       
       1045.2601             27.0634               4.239        
       1050.4864             27.0435               4.206        
       1055.7388             27.0225               4.1733       
       1061.0175             27.0005               4.1409       
       1066.3226             26.9775               4.1088       
       1071.6542             26.9534               4.0769       
       1077.0125             26.9284               4.0454       
       1082.3975             26.9024               4.0141       
       1087.8095             26.8754               3.983        
       1093.2486             26.8475               3.9523       
       1098.7148             26.8187               3.9217       
       1104.2084             26.7889               3.8915       
       1109.7294             26.7582               3.8615       
       1115.2781             26.7266               3.8318       
       1120.8545              26.694               3.8023       
       1126.4587             26.6604               3.7731       
        1132.091             26.6258               3.7441       
       1137.7515             26.5903               3.7153       
       1143.4402             26.5538               3.6869       
       1149.1574             26.5162               3.6586       
       1154.9032             26.4775               3.6306       
       1160.6777             26.4378               3.6028       
       1166.4811              26.397               3.5753       
       1172.3135             26.3551               3.548        
       1178.1751              26.312               3.5209       
        1184.066             26.2677               3.4941       
       1189.9863             26.2222               3.4675       
       1195.9362             26.1754               3.4411       
       1201.9159             26.1273               3.4149       
       1207.9255             26.0778               3.389        
       1213.9651             26.0269               3.3633       
        1220.035             25.9746               3.3377       
       1226.1351             25.9207               3.3124       
       1232.2658             25.8653               3.2874       
       1238.4271             25.8082               3.2625       
       1244.6193             25.7494               3.2378       
       1250.8424             25.6889               3.2134       
       1257.0966             25.6264               3.1891       
       1263.3821              25.562               3.1651       
        1269.699             25.4956               3.1412       
       1276.0475              25.427               3.1176       
       1282.4277             25.3562               3.0941       
       1288.8399              25.283               3.0709       
        1295.284             25.2072               3.0478       
       1301.7605             25.1289               3.024        
       1308.2693             25.0477               3.0004       
       1314.8106             24.9634               2.9769       
       1321.3847             24.8761               2.9532       
       1327.9916             24.7853               2.9295       
       1334.6316             24.6908               2.9061       
       1341.3047             24.5925               2.8828       
       1348.0112             24.4901               2.8598       
       1354.7513             24.3832               2.837        
        1361.525             24.2716               2.8144       
       1368.3327             24.1549               2.792        
       1375.1743             24.0326               2.7699       
       1382.0502             23.9044               2.7479       
       1388.9605             23.7696               2.7261       
       1395.9053             23.6277               2.7046       
       1402.8848             23.4781               2.6832       
       1409.8992             23.3198               2.662        
       1416.9487             23.1521               2.6411       
       1424.0335             22.9739               2.6203       
       1431.1536             22.7839               2.5997       
       1438.3094             22.5806               2.5793       
       1445.5009             22.3623               2.5591       
       1452.7284             22.1268               2.539        
       1459.9921             21.8715               2.5192       
        1467.292             21.5929               2.4995       
       1474.6285             21.2869                2.48        
       1482.0016             20.9478               2.4607       
       1489.4117             20.5681               2.4415       
       1496.8587             20.1376               2.4226       
        1504.343              19.641               2.4038       
       1511.8647             19.0553               2.3852       
        1519.424             18.3419               2.3667       
       1527.0212             17.4295               2.3484       
       1534.6563             16.1588               2.3303       
       1542.3295             14.0202               2.3123       
       1549.7311             2.83862               2.2952       
       1550.0412             2.15632               11.454       
        1550.069             2.68037               11.454       
       1557.7914             13.7486               11.363       
       1565.5804             15.5172               11.272       
       1573.4083             16.3532               11.182       
       1581.2753             16.6565               11.093       
       1589.1817             16.2799               11.004       
       1595.8196             11.5761               10.931       
       1596.1803             11.5274               15.45        
       1597.1276             14.2378               15.435       
       1605.1132              17.776               15.313       
       1613.1388             19.1375               15.191       
       1621.2045             20.0886               15.071       
       1629.3105             20.8413               14.951       
       1637.4571             21.4709               14.832       
       1645.6443             22.0139               14.715       
       1653.8726             22.4914               14.598       
       1662.1419             22.9166               14.482       
       1670.4526             23.2986               14.367       
       1678.8049             23.6436               14.254       
       1687.1989             23.9561               14.141       
       1695.6349             24.2392               14.029       
       1704.1131              24.495               13.917       
       1712.6337             24.7245               13.807       
       1721.1968             24.9278               13.698       
       1729.8028             25.1036               13.589       
       1738.4518             25.2488               13.482       
       1747.1441             25.3568               13.375       
       1755.8798             25.4137               13.269       
       1764.6592              25.387               13.164       
       1773.4825             25.1675               13.06        
       1780.4852             24.2756               12.979       
       1782.3499             23.3907               14.883       
       1783.5146             24.3169               14.869       
       1791.2617             25.6026               14.771       
        1800.218             26.2089               14.66        
       1809.2191             26.6377               14.55        
       1818.2652             26.9884               14.441       
       1827.3565             27.2932               14.332       
       1836.4933             27.5667               14.225       
       1845.6757             27.8169               14.118       
       1854.9041             28.0486               14.012       
       1864.1786             28.2649               13.907       
       1873.4995             28.4681               13.803       
        1882.867             28.6607               13.702       
       1892.2814             28.8442               13.601       
       1901.7428             29.0195               13.502       
       1911.2515             29.1874               13.404       
       1920.8077             29.3485               13.306       
       1930.4118             29.5034               13.209       
       1940.0638             29.6527               13.113       
       1949.7642             29.7967               13.018       
        1959.513             29.9357               12.924       
       1969.3105             30.0703               12.83        
       1979.1571             30.2006               12.738       
       1989.0529              30.327               12.646       
       1998.9981             30.4497               12.555       
       2008.9931             30.5691               12.465       
       2019.0381             30.6852               12.374       
       2029.1333             30.7978               12.284       
        2039.279              30.907               12.194       
       2049.4754             31.0132               12.105       
       2059.7227             31.1164               12.016       
       2070.0213             31.2169               11.929       
       2080.3714             31.3147               11.841       
       2090.7733             31.4098               11.754       
       2101.2272             31.5023               11.667       
       2111.7333             31.5922               11.581       
        2122.292             31.6798               11.496       
       2132.9034              31.765               11.411       
        2143.568             31.8481               11.327       
       2154.2858             31.9291               11.243       
       2165.0572             32.0081               11.16        
       2175.8825             32.0851               11.078       
       2186.7619             32.1603               10.997       
       2197.6957             32.2336               10.916       
       2208.6842             32.3052               10.835       
       2219.7276             32.3752               10.756       
       2230.8263             32.4435               10.676       
       2241.9804             32.5103               10.598       
       2253.1903             32.5755               10.52        
       2264.4562             32.6394               10.442       
       2275.7785             32.7018               10.366       
       2287.1574             32.7629               10.289       
       2298.5932             32.8227               10.214       
       2310.0862             32.8814               10.138       
       2321.6366             32.9389               10.063       
       2333.2448             32.9949               9.9879       
        2344.911             33.0495               9.9131       
       2356.6356             33.1028               9.8389       
       2368.4187             33.1548               9.7652       
       2380.2608             33.2056               9.6921       
       2392.1621             33.2552               9.6195       
        2404.123             33.3037               9.5474       
       2416.1436              33.351               9.4758       
       2428.2243             33.3972               9.4048       
       2440.3654             33.4424               9.3342       
       2452.5672             33.4866               9.2642       
       2464.8301             33.5297               9.1947       
       2477.1542             33.5719               9.1257       
        2489.54              33.6131               9.0572       
       2501.9877             33.6534               8.9892       
       2514.4976             33.6928               8.9217       
       2527.0701             33.7314               8.8547       
       2539.7055              33.769               8.7882       
        2552.404             33.8059               8.7222       
        2565.166             33.8419               8.6567       
       2577.9919             33.8771               8.5917       
       2590.8818             33.9116               8.5271       
       2603.8362             33.9453               8.4631       
       2616.8554             33.9783               8.3995       
       2629.9397             34.0105               8.3364       
       2643.0894             34.0421               8.2737       
       2656.3048              34.073               8.2116       
       2669.5863             34.1032               8.1499       
       2682.9343             34.1328               8.0887       
       2696.3489             34.1617               8.0279       
       2709.8307              34.19                7.9676       
       2723.3798             34.2177               7.9078       
       2736.9967             34.2449               7.8484       
       2750.6817             34.2715               7.7895       
       2764.4351             34.2975               7.731        
       2778.2573              34.323               7.673        
       2792.1486              34.348               7.6155       
       2806.1093             34.3725               7.5583       
       2820.1399             34.3964               7.5017       
       2834.2406              34.42                7.4454       
       2848.4118             34.4431               7.3896       
       2862.6539             34.4657               7.3342       
       2876.9671             34.4879               7.2793       
        2891.352             34.5098               7.2248       
       2905.8087             34.5312               7.1707       
       2920.3378             34.5523               7.1171       
       2934.9394             34.5731               7.0638       
       2949.6141             34.5937               7.011        
       2964.3622             34.6139               6.9586       
        2979.184             34.6341               6.9066       
       2994.0799             34.6541               6.8551       
       3009.0503             34.6779               6.8016       
       3024.0956             34.7003               6.7472       
       3039.2161             34.7205               6.6931       
       3054.4122             34.7395               6.6395       
       3069.6842             34.7576               6.5864       
       3085.0326             34.7751               6.5337       
       3100.4578             34.8925               6.4813       
       3115.9601             34.9089               6.4271       
       3131.5399             34.9247               6.3735       
       3147.1976             34.9397               6.3203       
       3162.9336             34.9542               6.2676       
       3178.7482             34.9681               6.2154       
        3194.642             35.0325               6.1634       
       3210.6152             35.0453               6.1109       
       3226.6683             35.0576               6.0589       
       3242.8016             35.0692               6.0074       
       3259.0156             35.0803               5.9564       
       3275.3107             35.0908               5.9058       
       3291.6873             35.1008               5.8557       
       3308.1457             35.1104               5.806        
       3324.6864             35.1195               5.7568       
       3341.3099             35.1282               5.7081       
       3358.0164             35.1365               5.6598       
       3374.8065             35.1443               5.612        
       3391.6805             35.1518               5.5645       
       3408.6389              35.159               5.5176       
       3425.6821             35.1658               5.4707       
       3442.8105             35.1722               5.4242       
       3460.0246             35.1783               5.3782       
       3477.3247             35.1841               5.3326       
       3494.7113             35.1896               5.2874       
       3512.1849             35.1948               5.2426       
       3529.7458             35.1998               5.1983       
       3547.3945             35.2045               5.1543       
       3565.1315             35.2495               5.1106       
       3582.9572             35.2539               5.0661       
       3600.8719             35.2579               5.0219       
       3618.8763             35.2616               4.9782       
       3636.9707             35.2649               4.9348       
       3655.1555             35.2678               4.8919       
       3673.4313             35.2705               4.8493       
       3691.7985             35.2728               4.8072       
       3710.2575             35.2749               4.7654       
       3728.8088             35.2767               4.724        
       3747.4528             35.2782               4.683        
       3766.1901             35.2794               4.6424       
        3785.021             35.2804               4.6022       
       3803.9461             35.2812               4.5623       
       3822.9659             35.2817               4.5228       
       3842.0807              35.282               4.4836       
       3861.2911             35.2821               4.4448       
       3880.5975             35.2819               4.4064       
       3900.0005             35.2816               4.3683       
       3919.5005              35.281               4.3306       
        3939.098             35.2803               4.2932       
       3958.7935             35.2794               4.2562       
       3978.5875             35.2783               4.2195       
       3998.4804              35.277               4.1831       
       4018.4728             35.2755               4.1471       
       4038.5652             35.2739               4.1114       
        4058.758             35.2722               4.076        
       4079.0518             35.2702               4.041        
       4099.4471             35.2681               4.0063       
       4119.9443             35.2659               3.9719       
        4140.544             35.2635               3.9378       
       4161.2467              35.261               3.904        
        4182.053             35.2584               3.8705       
       4202.9632             35.2556               3.8374       
       4223.9781             35.2527               3.8045       
        4245.098             35.2497               3.7719       
       4266.3234             35.2466               3.7397       
       4287.6551             35.2433               3.7077       
       4309.0933             35.2399               3.676        
       4330.6388             35.2364               3.6446       
        4352.292             35.2329               3.6135       
       4374.0535             35.2292               3.5827       
       4395.9237             35.2254               3.5521       
       4417.9033             35.2215               3.5219       
       4439.9929             35.2175               3.4919       
       4462.1928             35.2134               3.4622       
       4484.5038             35.2093               3.4327       
       4506.9263              35.205               3.4035       
       4529.4609             35.2007               3.3746       
       4552.1082             35.1963               3.346        
       4574.8688             35.1918               3.3176       
       4597.7431             35.1872               3.2894       
       4620.7318             35.1826               3.2616       
       4643.8355             35.1779               3.2339       
       4667.0547             35.1731               3.2066       
        4690.39              35.1682               3.1794       
       4713.8419             35.1633               3.1525       
       4737.4111             35.1583               3.1259       
       4761.0982             35.1533               3.0995       
       4784.9037             35.1482               3.0733       
       4808.8282              35.143               3.0474       
       4832.8723             35.1378               3.0216       
       4857.0367             35.1325               2.9961       
       4881.3219             35.1272               2.9707       
       4905.7285             35.1218               2.9456       
       4930.2571             35.1164               2.9207       
       4954.9084             35.1109               2.8961       
       4979.6829             35.1053               2.8716       
       5004.5814             35.0997               2.8474       
       5029.6043             35.0941               2.8234       
       5054.7523             35.0884               2.7996       
        5080.026             35.0826               2.7761       
       5105.4262             35.0769               2.7527       
       5130.9533             35.0711               2.7296       
       5156.6081             35.0652               2.7066       
       5182.3911             35.0593               2.6839       
       5208.3031             35.0534               2.6614       
       5234.3446             35.0474               2.639        
       5260.5163             35.0414               2.6169       
       5286.8189             35.0353               2.595        
        5313.253             35.0293               2.5732       
       5339.8192             35.0232               2.5517       
       5366.5183              35.017               2.5304       
       5393.3509             35.0109               2.5092       
       5420.3177             35.0047               2.4882       
       5447.4193             34.9984               2.4675       
       5474.6564             34.9922               2.4469       
       5502.0297             34.9859               2.4265       
       5529.5398             34.9796               2.4062       
       5557.1875             34.9733               2.3862       
       5584.9734             34.9669               2.3663       
       5612.8983             34.9606               2.3466       
       5640.9628             34.9542               2.3271       
       5669.1676             34.9478               2.3078       
       5697.5135             34.9413               2.2886       
        5726.001             34.9349               2.2696       
        5754.631             34.9284               2.2508       
       5783.4042             34.9219               2.2321       
       5812.3212             34.9154               2.2136       
       5841.3828             34.9089               2.1953       
       5870.5897             34.9024               2.1771       
       5899.9427             34.8958               2.1591       
       5929.4424             34.8892               2.1413       
       5959.0896             34.8827               2.1236       
        5988.885             34.8761               2.1061       
       6018.8295             34.8695               2.0887       
       6048.9236             34.8629               2.0715       
       6079.1682             34.8562               2.0544       
       6109.5641             34.8496               2.0375       
       6140.1119              34.843               2.0207       
       6170.8125             34.8363               2.0041       
       6201.6665             34.8297               1.9876       
       6232.6749              34.823               1.9713       
       6263.8382             34.8163               1.9551       
       6295.1574             34.8096               1.939        
       6326.6332             34.8029               1.9231       
       6358.2664             34.7963               1.9074       
       6390.0577             34.7896               1.8918       
        6422.008             34.7829               1.8763       
        6454.118             34.7762               1.8609       
       6486.3886             34.7695               1.8457       
       6518.8206             34.7628               1.8306       
       6551.4147             34.7561               1.8157       
       6584.1717             34.7494               1.8009       
        6915.365             34.6965               1.6587       
        7392.525             34.5988               1.4787       
        7902.609             34.4956               1.3179       
        8447.89              34.3844               1.1723       
        9030.794             34.2667               1.0403       
        9653.919             34.1242              0.91328       
        10320.04             33.9494              0.80257       
        11032.12             33.7255              0.70596       
        11793.34             33.4058              0.62158       
        12607.08             32.8304              0.54782       
        13204.23             31.7466              0.50214       
        13406.33             30.3664              0.48804       
        13460.23               28.7               0.48439       
        13476.97             27.1626               3.8023       
        13541.07             30.4042               3.7655       
        13743.17              31.945               3.6529       
        14406.88             33.3364               3.3331       
        15400.95             34.1052               2.9803       
        16463.62             34.5298               2.6831       
        17599.61             34.8171               2.4201       
        18813.98             35.0169               2.165        
        20112.15             35.1527               1.9335       
        21499.88             35.2451               1.7246       
        22983.38             35.3066               1.5372       
        24569.23             35.3461                1.37        
        26264.5              35.3706               1.2213       
        28076.76             35.4243               1.0819       
        30014.05             35.4242              0.95548       
        32085.02             35.4156              0.84388       
        34298.89             35.4016              0.74531       
        36665.51             35.3841              0.65825       
        39195.43             35.3646              0.58121       
        41899.92             35.3438              0.51301       
        44791.01             35.3225              0.45284       
        47881.59             35.3012              0.39976       
        51185.42             35.2804              0.35293       
        54717.21             35.2604              0.31159       
        58492.7              35.2416              0.27507       
        62528.7              35.2234              0.24139       
        66843.18             35.2057              0.21184       
        71455.36             35.1888              0.18592       
        76385.78             35.1728              0.16317       
        81656.4               35.158              0.14307       
        87290.69             35.1442              0.12516       
        93313.74             35.1312              0.10949       
        99752.39             35.1191              0.095793      
        106635.3              35.108              0.08381       
        113993.1             35.0977              0.073328      
        121858.7             35.0883              0.064159      
        130266.9             35.0798              0.056139      
        139255.3             35.0719              0.049123      
        148864.0             35.0648              0.042986      
        159135.6             35.0583              0.037616      
        170115.9             35.0524              0.032918      
        181853.9             35.0471              0.028808      
        194401.8             35.0423              0.025212      
        207815.6              35.038              0.022066      
        222154.8              35.034              0.019312      
        237483.5             35.0305              0.016903      
        253869.9             35.0273              0.014795      
        271386.9             35.0245              0.01295       
        290112.6             35.0219              0.011335      
        310130.4             35.0196             0.0099222      
        331529.4             35.0175             0.0086856      
        354404.9             35.0156             0.0076033      
        378858.8             35.0139              0.006656      
        405000.1             35.0124             0.0058269      
        432945.1             35.0111             0.0051012      
