# Ce
# Form Factors from Chantler Tables
# DOI: https://dx.doi.org/10.18434/T4HS32
# automatically retrived 2019-02-27 using URL https://physics.nist.gov/cgi-bin/ffast/ffast.pl
#
# Z = 58
# f_rel = -0.77379 e/atom  (Relativistic correction estimate)
# f_NT = -0.01317 e/atom (Nuclear Thomson correction)


#        E (eV)            f1 (e/atom)          f2 (e/atom)     
         10.69               18.5477                0.0         
        11.42761             18.4321                0.0         
        12.21612             18.2878                0.0         
        13.05903             18.1041                0.0         
        13.9601               17.864                0.0         
        14.92335              17.538                0.0         
        15.95306             17.0701                0.0         
        17.05382             16.3339                0.0         
        18.23053             14.9461                0.0         
         19.404              10.8521                0.0         
        19.48844             10.0681                0.0         
         19.701               6.1472                0.0         
        19.7802              0.379223               0.0         
         19.899              6.55466               11.424       
         20.196              12.0134               11.037       
        20.83314             15.9795               10.269       
        22.27063             19.6057               8.7851       
        23.8073              21.4408               7.3863       
        25.45001             22.4561               6.1056       
        27.20606             22.9871               4.9917       
        29.08327             23.2158               4.0571       
        31.09002             23.2563               3.2921       
        33.23523             23.1818               2.6767       
        35.52846             23.0382               2.1871       
         37.044              22.9227               1.9341       
         37.611              22.8708               1.8511       
        37.7622              22.8481               1.8299       
        37.97993             22.8421               1.8223       
         37.989              22.8418               1.8211       
         38.556              22.8084               1.7485       
        40.60054              22.664               1.5247       
        43.40198             22.4654               1.2941       
        46.39671             22.2623               1.1157       
        49.59809             22.0558              0.97795       
        53.02035              21.844               0.8719       
        56.67876             21.6221              0.79042       
        60.58959             21.3955              0.72792       
        64.77028             21.1284              0.68006       
        69.23942             20.8174              0.64347       
        74.01695             20.4375              0.61552       
        79.12411             19.9452              0.59418       
         84.182              19.3008              0.57914       
        84.58368             19.2365              0.57815       
        85.4705               19.072              0.57606       
        85.8141              18.9691              0.57528       
        86.3295               18.934              0.67415       
         87.618              18.7633              0.68664       
        90.41995             18.2758              0.72185       
        96.65893             16.6918              0.84947       
        103.3284              13.137               1.0495       
         107.8               5.12263               1.2092       
         109.45              -8.64721              1.2718       
         109.89              -27.986               1.2887       
        110.4581             -5.31339              40.959       
         110.55              -2.53344              40.45        
         112.2               18.4513               32.422       
        118.0797             30.5692               15.58        
        126.2272             29.1226               7.1616       
        134.9368             26.9869               4.7904       
        144.2475             25.7041               4.0662       
        154.2005             24.9525               3.8505       
        164.8404             24.4842               3.8044       
        176.2144             24.1452               3.8146       
        188.3732             23.8195               3.845        
        201.3709             23.2986               3.8897       
        203.056              23.1721               3.8965       
        206.164              22.7074               3.9099       
        206.9928             22.2092               3.9136       
        208.236              22.6691               4.8664       
        211.344              23.0311               4.893        
        215.2655             23.1562               4.9281       
        218.834              23.1771               4.9616       
        222.1835             23.0847               4.9944       
        223.0767             22.9305               5.0034       
        224.4165             23.1075               5.3388       
        227.766              23.2773               5.3784       
        230.1188             23.3369               5.407        
        245.997               23.526               5.6147       
        262.9708             23.6066               5.8612       
        281.1158             23.5791               6.1427       
        283.808               23.541               6.1853       
        288.152              23.3542               6.2541       
        289.3104             23.1025               6.2724       
        291.048              23.3794               6.812        
        295.392              23.6458               6.8843       
        300.5128               23.8                6.969        
        321.2482             24.2058               7.3018       
        343.4143             24.5712               7.624        
        367.1099              24.963               7.9138       
        392.4405             25.3727               8.1521       
        419.5189             25.7854               8.3262       
        448.4657              26.18                8.4268       
        479.4098             26.5263               8.441        
        512.4891              26.783               8.3709       
        547.8508             26.9084               8.2281       
        585.6525             26.8554               8.0259       
        626.0625             26.5618               7.7785       
        669.2609             25.9329               7.499        
        715.4399             24.7956               7.199        
        764.8052             22.7724               6.8875       
        817.5768             18.7435               6.5726       
        865.634              8.85327               6.3043       
        873.9896             4.11953               6.2595       
        878.8835             -1.15258              6.2335       
        883.274              -34.5756              6.2104       
        887.7165             -2.48566              26.121       
        896.7935             0.634175              25.699       
        900.3987             -4.41287              25.534       
        900.966              -8.3683               25.509       
        905.8065             4.57327               38.494       
        919.326              14.1198               37.541       
        934.2948             19.4031               36.529       
        998.7612             29.9944               32.667       
        1067.676             34.8425               29.443       
        1141.345             36.9803               26.661       
        1161.692             36.8591               25.984       
        1179.473             35.5587               25.419       
        1184.215              33.531               25.272       
        1191.327             35.8829               29.279       
        1209.108              38.21                28.619       
        1220.098             38.9332               28.225       
        1247.344             39.9517               27.301       
        1266.436              39.912               26.742       
        1271.527             39.1626               26.598       
        1279.164             40.3586               28.207       
        1298.256             41.7722               27.629       
        1304.285             42.0651               27.453       
        1394.281             44.5314               25.227       
        1405.908             44.6848               24.983       
        1427.427             44.6619               24.549       
        1433.165             44.1922               24.437       
        1441.773             44.9648               25.432       
        1463.292              45.923               25.02        
        1490.486             46.7032               24.525       
        1593.329             48.7721               22.579       
        1703.269             50.2271               20.699       
        1820.795             51.2984               18.933       
        1946.43              52.1013                17.3        
        2080.733             52.6929               15.796       
        2224.304             53.1185               14.404       
        2377.781             53.5173               13.148       
        2541.848             53.7256               11.988       
        2717.235             53.8825               10.931       
        2904.724             53.9726               9.9786       
        3105.15              54.1316               9.0399       
        3319.406             54.0412               8.1349       
        3548.445             53.8652               7.3286       
        3793.288             53.6071               6.5717       
        4055.024             53.2539               5.8978       
        4334.821             52.7952               5.3002       
        4633.924             52.1906               4.7711       
        4953.664             51.3382               4.3029       
        5295.467             49.9245               3.8778       
        5608.932             46.8297               3.5375       
        5660.855             45.4426               3.485        
        5694.783             43.6597               3.4514       
        5717.677              39.988               3.4291       
        5752.017             43.6201               10.533       
        5837.868             46.7211               10.205       
        6040.916             48.1015               9.5007       
        6051.453             48.0772               9.4699       
        6133.379             47.1455               9.2384       
        6158.036              45.489               9.1714       
        6195.021             47.4235               12.55        
        6287.484              49.308               12.227       
        6417.824             50.2841               11.799       
        6469.004             50.3955               11.639       
        6516.056             50.2108               11.497       
        6542.251             49.4645               11.42        
        6581.544             50.5806               13.081       
        6679.776             51.8733               12.792       
        6915.365             53.3992               12.149       
        7392.525             55.1261               10.991       
        7902.609              56.221               9.9078       
        8447.89              56.9654               8.9174       
        9030.794             57.5029               8.0097       
        9653.919             57.8541                7.15        
        10320.04             58.0788               6.3882       
        11032.12             58.2206               5.7128       
        11793.34             58.3774               5.1034       
        12607.08              58.449               4.5487       
        13476.97             58.4781               4.045        
        14406.88             58.4372               3.5928       
        15400.95             58.3727               3.1939       
        16463.62             58.2934               2.8418       
        17599.61             58.2044               2.5302       
        18813.98             58.1087               2.2547       
        20112.15             58.0087               2.0111       
        21499.88             57.9055               1.7954       
        22983.38             57.7995               1.6044       
        24569.23             57.6904               1.435        
        26264.5              57.5765               1.2815       
        28076.76             57.4526               1.1348       
        30014.05             57.3038              0.99927       
        32085.02             57.1194              0.87956       
        34298.89             56.8744              0.77465       
        36665.51             56.4958              0.68282       
        39195.43             55.6078              0.60237       
        39634.14             55.2451              0.58995       
        40240.79             54.0411              0.57343       
        40402.56              52.598              0.56915       
        40645.22             54.0571               3.4044       
        41251.86             55.3764               3.3261       
        41899.92             55.9523               3.2457       
        44791.01             57.0307               2.9144       
        47881.59             57.5239               2.6115       
        51185.42              57.821               2.3382       
        54717.21             58.0169               2.0897       
        58492.7              58.1468               1.8652       
        62528.7              58.2336               1.6646       
        66843.18             58.2911               1.4854       
        71455.36             58.3279               1.3254       
        76385.78             58.3503               1.1825       
        81656.4              58.3941               1.0531       
        87290.69             58.3944              0.93251       
        93313.74             58.3864              0.82579       
        99752.39             58.3732              0.73135       
        106635.3             58.3567              0.64777       
        113993.1             58.3381              0.57379       
        121858.7             58.3185              0.50831       
        130266.9             58.2983              0.45033       
        139255.3             58.2782               0.399        
        148864.0             58.2583              0.35354       
        159135.6             58.2391              0.31329       
        170115.9             58.2206              0.27764       
        181853.9             58.2029              0.24629       
        194401.8             58.1864              0.21867       
        207815.6              58.171              0.19415       
        222154.8             58.1566               0.1724       
        237483.5             58.1432              0.15309       
        253869.9             58.1308              0.13595       
        271386.9             58.1193              0.12074       
        290112.6             58.1087              0.10723       
        310130.4             58.0989              0.095245      
        331529.4             58.0899              0.084601      
        354404.9             58.0817              0.075151      
        378858.8             58.0742              0.066759      
        405000.1             58.0673              0.059308      
        432945.1             58.0609              0.05269       
