# Cs
# Form Factors from Chantler Tables
# DOI: https://dx.doi.org/10.18434/T4HS32
# automatically retrived 2019-02-27 using URL https://physics.nist.gov/cgi-bin/ffast/ffast.pl
#
# Z = 55
# f_rel = -0.67594 e/atom  (Relativistic correction estimate)
# f_NT = -0.012486 e/atom (Nuclear Thomson correction)


#        E (eV)            f1 (e/atom)          f2 (e/atom)     
         10.69               -12.1026               0.0         
         11.172              -17.4936               0.0         
         11.343              -24.4803               0.0         
        11.3886              -32.8699               0.0         
        11.42761             -27.9838              16.606       
         11.457              -24.0414              16.512       
         11.628              -16.3832              15.981       
        12.21612             -9.79847              14.334       
         12.838              -9.31038              12.83        
        13.0345              -12.3379              12.378       
        13.05903              -13.59               12.323       
        13.0869              -16.8117              12.259       
        13.1655              -11.5245              21.314       
         13.362              -6.49255              20.509       
        13.9601              -1.15375              18.246       
        14.92335             2.52001               15.149       
        15.95306             4.35711               12.455       
        17.05382             5.23957               10.168       
        18.23053             5.54833               8.264        
        19.48844             5.49875               6.7034       
        20.83314             5.22332               5.4384       
         22.246              4.81062               4.436        
        22.27063             4.80269               4.4209       
        22.5865              4.69752               4.2335       
        22.6773              4.66282               4.1817       
        22.8135               4.6235               4.1161       
         23.154               4.5155               3.935        
        23.8073              4.29825               3.6186       
        25.45001             3.73335               2.9719       
        27.20606             3.11987               2.4576       
        29.08327             2.46113               2.049        
        31.09002             1.75118               1.7242       
        33.23523             0.976396              1.4659       
        35.52846             0.12113               1.2603       
        37.97993            -0.856516              1.0965       
        40.60054             -1.99122             0.96587       
        43.40198             -3.34832              0.8617       
        46.39671             -5.01452             0.77862       
        49.59809             -7.12612             0.71281       
        53.02035             -9.90451             0.66082       
        56.67876             -13.7385             0.61996       
        60.58959             -19.3856             0.58791       
        64.77028             -28.5658              0.5627       
        69.23942             -46.3389              0.5428       
        74.01695             -99.959              0.52698       
         74.97               -129.058             0.52433       
        76.1175              -221.925             0.52132       
        76.4235              -340.742             0.52055       
        76.8825              -196.862              231.6        
         77.224              -147.117              214.73       
         78.03               -117.448              179.89       
         78.406              -139.264              165.74       
        78.7212              -236.373              154.78       
        79.12411             -95.6342              364.6        
         79.194              -77.0908              358.9        
         80.376              58.4873               275.58       
        84.58368              122.57               111.18       
        90.41995             93.1188               37.396       
        96.65893             68.8276               16.039       
        103.3284             54.3537               8.5172       
        110.4581             45.4066               5.3851       
        118.0797             39.5075               3.9085       
        126.2272             35.3773               3.1538       
        134.9368             32.3276               2.7563       
        144.2475             29.9529               2.557        
        154.2005              27.943               2.4801       
        158.368              27.1051               2.4742       
        160.792              26.4045               2.476        
        161.4384             25.8952               2.4771       
        162.408              26.1848               3.3029       
        164.8404             26.2309               3.3175       
        168.854              25.9271               3.3477       
        171.4385             25.6084               3.3705       
        172.1277             25.3979               3.377        
        173.1615              25.486               3.7029       
        175.746              25.4439               3.731        
        176.2144             25.4243               3.7364       
        188.3732             24.7988               3.8938       
        201.3709             24.1919               4.0923       
        215.2655             23.6419               4.324        
        226.184               23.185               4.512        
        229.646              22.9041               4.5717       
        230.1188             22.8143               4.5798       
        230.5692              22.641               4.5876       
        231.954              22.8565               5.0882       
        235.416              23.0017               5.1508       
        245.997              23.0229               5.339        
        262.9708             22.9649               5.6267       
        281.1158              22.938               5.9045       
        300.5128             22.9549               6.162        
        321.2482             23.0087               6.3883       
        343.4143             23.0822               6.5697       
        367.1099             23.1512               6.7002       
        392.4405             23.1889               6.778        
        419.5189             23.1648               6.8036       
        448.4657             23.0427               6.7792       
        479.4098             22.7759               6.7095       
        512.4891             22.3011               6.5999       
        547.8508             21.5152               6.4564       
        585.6525             20.2337               6.2849       
        626.0625             18.0683               6.0915       
        669.2609             13.8951               5.8812       
         710.99              2.98332               5.6798       
        715.4399            0.0604433              5.6585       
        721.8725             -7.72576              5.6279       
         724.71              -18.5884              5.6145       
        724.7745             -19.1802              5.6142       
        729.1275             -9.26291              26.798       
        735.8025             -6.15356              26.411       
        738.7605             -11.3635              26.242       
         740.01              -12.2738              40.226       
        743.1975             -1.76746              39.937       
         754.29              8.45083               38.958       
        764.8052             13.4408               38.065       
        817.5768             25.2035               34.073       
        873.9896             30.5574               30.811       
        934.2948             33.4544               28.078       
        977.648               33.871               26.398       
        992.612              32.6294               25.859       
        996.6024             30.6735               25.718       
        998.7612             30.9608               29.754       
        1002.588             32.9983               29.597       
        1017.552             35.2241               29.002       
         1043.7               36.729               28.014       
        1059.675             36.8058               27.441       
        1063.935             36.1034               27.292       
        1067.676             36.7852               28.939       
        1070.325             37.2994               28.836       
         1086.3              38.7407               28.234       
        1141.345             41.0242               26.429       
        1192.758             42.1692               25.038       
        1211.015             42.1411               24.588       
        1215.883             41.6738               24.471       
        1220.098             42.1059               25.527       
        1223.186             42.4448               25.452       
        1241.442             43.3922               24.988       
        1304.285             45.0837               23.435       
        1394.281             46.6262               21.528       
        1490.486             47.7757               19.742       
        1593.329             48.6563               18.09        
        1703.269             49.3538               16.56        
        1820.795             49.8622               15.099       
        1946.43              50.2114               13.769       
        2080.733             50.4447               12.563       
        2224.304              50.647               11.459       
        2377.781             50.7185               10.455       
        2541.848             50.7506               9.5448       
        2717.235             50.7159               8.7209       
        2904.724             50.6493               7.9771       
        3105.15              50.5732               7.1995       
        3319.406             50.3418               6.4441       
        3548.445             50.0012               5.778        
        3793.288             49.5485               5.191        
        4055.024              48.946               4.6666       
        4334.821              48.076               4.1851       
        4633.924             46.6164               3.7579       
        4911.662              43.379               3.4164       
        4953.664              42.088               3.3694       
        4986.84              40.1016               3.3331       
        5006.888             36.3183               3.3114       
        5036.959             40.0489               10.623       
        5112.138             43.2059               10.283       
        5252.212              44.433               9.692        
        5295.467             44.2277               9.5385       
        5332.603             43.5105               9.4138       
        5354.04              41.7843               9.3437       
        5386.197             43.8628               12.901       
        5466.588             45.9086               12.529       
        5600.014             47.1111               11.957       
        5660.855             47.1838               11.722       
        5685.729             47.0101               11.632       
        5708.586             46.2463               11.551       
        5742.872             47.3775               13.236       
        5828.586             48.6805               12.933       
        6051.453             50.3007               12.217       
        6469.004              51.989               11.075       
        6915.365             53.0921               10.007       
        7392.525             53.8505               9.011        
        7902.609             54.3753               8.1009       
        8447.89              54.7429               7.2827       
        9030.794             55.0192               6.5399       
        9653.919             55.1931               5.8397       
        10320.04             55.3657               5.2103       
        11032.12             55.4449               4.6386       
        11793.34             55.4785               4.1219       
        12607.08             55.4399               3.6594       
        13476.97             55.3771               3.2515       
        14406.88             55.2986               2.8911       
        15400.95             55.2096               2.5727       
        16463.62             55.1139               2.2914       
        17599.61             55.0136               2.0427       
        18813.98             54.9102               1.8226       
        20112.15             54.8037               1.6265       
        21499.88             54.6938               1.4529       
        22983.38             54.5784               1.2958       
        24569.23             54.4532               1.1546       
        26264.5              54.3136               1.026        
        28076.76              54.146              0.90351       
        30014.05             53.9188              0.79396       
        32085.02             53.5825              0.69828       
        34298.89             52.9105              0.61464       
        35264.91              52.195              0.58299       
        35804.68             50.9706              0.56641       
        35948.62             49.5025              0.56212       
        36164.52             50.9879               3.4469       
        36665.51             52.2763               3.3719       
        36704.29             52.3309               3.3662       
        39195.43              53.829               3.027        
        41899.92             54.4128               2.7121       
        44791.01             54.7513               2.4284       
        47881.59             54.9722               2.1715       
        51185.42             55.1185               1.9375       
        54717.21             55.2163               1.7284       
        58492.7               55.281               1.5415       
        62528.7              55.3226               1.3747       
        66843.18             55.3477               1.2258       
        71455.36             55.3613               1.093        
        76385.78             55.3958              0.97171       
        81656.4              55.3951              0.86233       
        87290.69             55.3844              0.76264       
        93313.74             55.3689              0.67454       
        99752.39             55.3507              0.59667       
        106635.3              55.331              0.52783       
        113993.1             55.3105              0.46698       
        121858.7             55.2899              0.41317       
        130266.9             55.2695              0.36559       
        139255.3             55.2497              0.32351       
        148864.0             55.2306               0.2863       
        159135.6             55.2123              0.25345       
        170115.9             55.1951              0.22452       
        181853.9              55.179               0.1989       
        194401.8             55.1639              0.17622       
        207815.6             55.1498              0.15613       
        222154.8             55.1368              0.13835       
        237483.5             55.1247              0.12259       
        253869.9             55.1136              0.10864       
        271386.9             55.1033              0.096275      
        290112.6             55.0939              0.085325      
        310130.4             55.0852              0.075625      
        331529.4             55.0773              0.067031      
        354404.9              55.07               0.059416      
        378858.8             55.0634              0.052669      
        405000.1             55.0574              0.04669       
        432945.1             55.0519              0.041392      
