# Cu
# Form Factors from Chantler Tables
# DOI: https://dx.doi.org/10.18434/T4HS32
# automatically retrived 2019-02-27 using URL https://physics.nist.gov/cgi-bin/ffast/ffast.pl
#
# Z = 29
# f_rel = -0.14003 e/atom  (Relativistic correction estimate)
# f_NT = -0.0072602 e/atom (Nuclear Thomson correction)


#        E (eV)            f1 (e/atom)          f2 (e/atom)     
         10.69               5.11541               2.1733       
        11.42761             5.16418               2.2889       
        12.21612             5.21676               2.4126       
        13.05903             5.27396               2.5449       
        13.9601              5.33667               2.6864       
        14.92335             5.40595               2.8374       
        15.95306             5.48301               2.9985       
        17.05382             5.56923               3.1701       
        18.23053             5.66623               3.3525       
        19.48844             5.77588               3.546        
        20.83314              5.9004               3.7507       
        22.27063              6.0425               3.9669       
        23.8073              6.20556               4.1946       
        25.45001             6.39395               4.4336       
        27.20606             6.61376               4.6837       
        29.08327              6.874                4.9447       
        31.09002             7.18087               5.1429       
        33.23523             7.48774               5.2695       
        35.52846             7.79039               5.3892       
        37.97993              8.0925               5.5005       
        40.60054             8.39535               5.6019       
        43.40198             8.69863               5.6922       
        46.39671             9.00071               5.7698       
        49.59809             9.29848               5.8335       
        53.02035             9.58673               5.8821       
        56.67876             9.85667               5.9145       
        60.58959             10.0916               5.9298       
        64.77028             10.2528               5.9273       
        69.23942              10.202               5.9066       
         72.128              9.67426               5.8847       
         73.232              8.64551               5.8748       
        73.5264              7.25829               5.8721       
        74.01695             9.01656               8.6666       
         75.072              10.3701               8.4419       
        79.12411             11.8948               7.734        
        84.58368             12.5602               7.0931       
        90.41995              12.902               6.7123       
        96.65893             13.1577               6.4597       
        103.3284             13.3709               6.2728       
        110.4581              13.538               6.1234       
        117.404               13.57                6.0085       
        118.0797             13.5466               5.9985       
        119.201               13.444               5.9824       
        119.6802             13.2559               5.9757       
        120.399              13.4706               6.3567       
        122.196              13.6854               6.3407       
        126.2272             13.9079               6.3091       
        134.9368             14.2299               6.2577       
        144.2475              14.515               6.2188       
        154.2005             14.7908               6.1892       
        164.8404             15.0662               6.1667       
        176.2144             15.3462               6.1485       
        188.3732             15.6336               6.131        
        201.3709              15.93                6.1101       
        215.2655             16.2355               6.0812       
        230.1188             16.5503               6.0398       
        245.997              16.8682               5.9821       
        262.9708             17.1872               5.9048       
        281.1158             17.5025               5.8057       
        300.5128             17.8097               5.6839       
        321.2482             18.1027               5.536        
        343.4143             18.3733               5.3635       
        367.1099             18.6138               5.1699       
        392.4405             18.8206               4.9596       
        419.5189             18.9882               4.7369       
        448.4657             19.1122               4.5063       
        479.4098             19.1884               4.2718       
        512.4891             19.2116               4.0367       
        547.8508             19.1744               3.804        
        585.6525             19.0663               3.5762       
        626.0625             18.8708               3.3552       
        669.2609             18.5608               3.1426       
        715.4399             18.0877               2.9393       
        764.8052             17.3572               2.7122       
        817.5768             16.1368               2.4939       
        873.9896             13.6848               2.2948       
        912.478              9.41949               2.1756       
        926.4445             4.24002               2.1352       
        930.1689             -1.51687              2.1247       
         931.98              -1.75592              13.119       
        934.2948             2.65894               13.043       
        935.7555             3.88406               12.996       
        946.245                6.37                12.662       
        950.049              4.47663               12.545       
        955.755              8.42374               17.798       
         970.02              12.7452               17.165       
        998.7612              16.533               15.984       
        1067.676             19.8679               13.862       
        1074.178              19.967               13.705       
        1090.619             19.7917               13.328       
        1095.004             19.1176               13.231       
        1101.58              20.0415               14.651       
        1118.022             21.1255               14.383       
        1141.345              22.025               14.041       
        1220.098             24.0494               12.862       
        1304.285              25.395               11.731       
        1394.281             26.3665               10.688       
        1490.486             27.0949               9.7449       
        1593.329             27.6981               8.8867       
        1703.269             28.1525               8.0183       
        1820.795              28.467               7.2303       
        1946.43              28.6884               6.5194       
        2080.733             28.8419               5.878        
        2224.304             28.9864               5.2957       
        2377.781             29.0462               4.7581       
        2541.848              29.069               4.2769       
        2717.235             29.0677               3.847        
        2904.724             29.0575               3.4633       
        3105.15              29.0457               3.1014       
        3319.406             28.9922               2.7637       
        3548.445             28.9262               2.465        
        3793.288             28.8535               2.1976       
        4055.024             28.7704               1.9496       
        4334.821             28.6782               1.7317       
        4633.924             28.5808               1.5402       
        4953.664              28.479               1.367        
        5295.467             28.3686               1.2121       
        5660.855             28.2491               1.0758       
        6051.453             28.1175              0.95563       
        6469.004             27.9683              0.84971       
        6915.365             27.7902              0.75624       
        7392.525              27.561              0.67369       
        7902.609              27.227              0.60071       
        8447.89              26.5993              0.53613       
        8799.322             25.5649              0.50037       
        8934.005             24.1493              0.48721       
        8969.921             22.4326               0.4834       
        9030.794             24.3489               3.8582       
        9158.478             25.7726               3.754        
        9653.919              27.312               3.4054       
        10320.04             28.0727               3.0504       
        11032.12             28.5046               2.7462       
        11793.34             28.7985               2.4736       
        12607.08             29.0017               2.2129       
        13476.97             29.1413               1.9766       
        14406.88             29.2373               1.7631       
        15400.95             29.3017               1.5712       
        16463.62             29.3434               1.3994       
        17599.61             29.3688               1.2463       
        18813.98             29.4189               1.1059       
        20112.15             29.4195              0.97986       
        21499.88             29.4125              0.86826       
        22983.38             29.4006              0.76945       
        24569.23             29.3855              0.68155       
        26264.5              29.3684              0.60363       
        28076.76             29.3516              0.53216       
        30014.05             29.3316              0.46847       
        32085.02             29.3106              0.41242       
        34298.89             29.2896               0.3631       
        36665.51             29.2692              0.31969       
        39195.43             29.2497              0.28131       
        41899.92             29.2308              0.24628       
        44791.01             29.2123              0.21563       
        47881.59             29.1946               0.1888       
        51185.42             29.1779              0.16531       
        54717.21             29.1623              0.14475       
        58492.7              29.1478              0.12675       
        62528.7              29.1344              0.11098       
        66843.18              29.122              0.097185      
        71455.36             29.1106              0.085104      
        76385.78             29.1001              0.074527      
        81656.4              29.0907              0.06518       
        87290.69             29.0821              0.056834      
        93313.74             29.0741              0.049559      
        99752.39             29.0668              0.043217      
        106635.3             29.0601              0.037687      
        113993.1             29.0541              0.032866      
        121858.7             29.0486              0.028662      
        130266.9             29.0436              0.024997      
        139255.3             29.0391              0.021801      
        148864.0              29.035              0.019015      
        159135.6             29.0313              0.016585      
        170115.9              29.028              0.014466      
        181853.9             29.0251              0.012618      
        194401.8             29.0224              0.011006      
        207815.6              29.02              0.0096007      
        222154.8             29.0179             0.0083749      
        237483.5             29.0159             0.0073058      
        253869.9             29.0142             0.0063734      
        271386.9             29.0127             0.0055601      
        290112.6             29.0113             0.0048507      
        310130.4             29.0101             0.0042319      
        331529.4              29.009             0.0036922      
        354404.9              29.008             0.0032214      
        378858.8             29.0071             0.0028106      
        405000.1             29.0063             0.0024524      
        432945.1             29.0056             0.0021398      
