# Dy
# Form Factors from Chantler Tables
# DOI: https://dx.doi.org/10.18434/T4HS32
# automatically retrived 2019-02-28 using URL https://physics.nist.gov/cgi-bin/ffast/ffast.pl

# For f_rel the second term, which is 3/5th of the Cromer-Liberman value, is used as suggested by Chantler.
# Real and imaginary part of the formfactors are: f'(E)=f1(E)+f_rel+f_NT and f''(E)=f2(E)
# see also original publication:  https://doi.org/10.1063/1.555974

# Z = 66
# f_rel = -0.6474 e/atom  (Relativistic correction estimate)
# f_NT = -0.014705 e/atom (Nuclear Thomson correction)


#        E (eV)            f1 (e/atom)          f2 (e/atom)     
         4.116               12.0399                0.0         
         4.179               11.9981                0.0         
         4.1958              11.9535                0.0         
         4.221               11.9946              0.084705      
         4.284               12.0271              0.085785      
         10.69               11.5061              0.26494       
        11.42761             11.3999              0.29523       
        12.21612             11.2755              0.32993       
        13.05903             11.3472               0.3697       
        13.9601              11.1736              0.41529       
        14.92335             10.9656              0.46755       
        15.95306             10.7127              0.52742       
        17.05382             10.3998               0.596        
        18.23053             10.0025              0.67432       
        19.48844              9.4798              0.76357       
        20.83314             8.75445              0.86507       
        22.27063             7.65884              0.98022       
        23.8073              5.72391               1.1105       
        25.45001             0.535432              1.2576       
         25.774              -2.09144              1.2875       
        26.1685              -10.3771              1.3243       
        26.2737              -20.6809              1.3342       
        26.4315              -9.41095              21.825       
         26.826              0.56153               20.871       
        27.20606             4.62242               20.011       
        29.08327             12.7652               16.478       
        31.09002             15.9925               13.594       
        33.23523              17.464               11.256       
        35.52846             18.0436               9.4549       
        37.97993             18.1477               8.132        
        40.60054             18.0083               7.2103       
        43.40198             17.7603               6.6139       
        46.39671             17.4826               6.2771       
        49.59809             17.2211               6.146        
        53.02035             17.0027               6.1788       
        56.67876             16.8431               6.3436       
        60.58959             16.7508               6.6164       
         61.642              16.7367               6.7021       
        62.5855              16.7217               6.7824       
        62.8371              16.7082               6.8044       
        63.2145              16.7212               6.8637       
         64.158              16.7362               6.9503       
        64.77028             16.7444               7.008        
        69.23942              16.849               7.4562       
        74.01695             17.0661               7.9731       
        79.12411             17.4445               8.5332       
        84.58368             17.8946               8.7702       
        90.41995             18.3409               8.9903       
        96.65893             18.7849               9.1862       
         100.0                21.495               9.2747       
         100.5               21.5276               9.287        
        101.0025              21.56                9.2991       
       101.50751             21.5924               9.311        
       102.01505             21.6246               9.3228       
       102.52513             21.6568               9.3343       
       103.03775             21.6888               9.3456       
       103.55294             21.7206               9.3568       
        104.0707             21.7524               9.3677       
       104.59106             21.7839               9.3785       
       105.11401             21.8153               9.389        
       105.63958             21.8466               9.3994       
       106.16778             21.8776               9.4095       
       106.69862             21.9084               9.4195       
       107.23211             21.9391               9.4292       
       107.76827             21.9695               9.4388       
       108.30712             21.9997               9.4481       
       108.84865             22.0296               9.4572       
       109.39289             22.0593               9.4661       
       109.93986             22.0887               9.4748       
       110.48956             22.1178               9.4833       
       111.04201             22.1466               9.4916       
       111.59722             22.1751               9.4997       
        112.1552             22.2033               9.5075       
       112.71598             22.2311               9.5151       
       113.27956             22.2585               9.5225       
       113.84596             22.2856               9.5297       
       114.41519             22.3122               9.5367       
       114.98726             22.3384               9.5434       
        115.5622             22.3642               9.5499       
       116.14001             22.3894               9.5562       
       116.72071             22.4141               9.5623       
       117.30431             22.4384               9.5681       
       117.89083              22.462               9.5737       
       118.48029              22.485               9.5791       
       119.07269             22.5075               9.5842       
       119.66805             22.5292               9.5891       
       120.26639             22.5502               9.5938       
       120.86772             22.5706               9.5983       
       121.47206             22.5901               9.6025       
       122.07942             22.6088               9.6065       
       122.68982             22.6266               9.6102       
       123.30327             22.6435               9.6137       
       123.91979             22.6594               9.617        
       124.53939             22.6743                9.62        
       125.16208              22.688               9.6228       
       125.78789             22.7006               9.6254       
       126.41683             22.7119               9.6277       
       127.04892             22.7219               9.6298       
       127.68416             22.7305               9.6317       
       128.32258             22.7376               9.6333       
       128.96419              22.743               9.6346       
       129.60902             22.7467               9.6358       
       130.25706             22.7486               9.6366       
       130.90835             22.7484               9.6373       
       131.56289             22.7461               9.6377       
        132.2207             22.7414               9.6379       
       132.88181             22.7343               9.6378       
       133.54621             22.7244               9.6375       
       134.21395             22.7116               9.6369       
       134.88502             22.6955               9.6361       
       135.55944              22.676               9.6351       
       136.23724             22.6526               9.6338       
       136.91842             22.6249               9.6323       
       137.60302             22.5927               9.6305       
       138.29103             22.5552               9.6285       
       138.98249             22.5121               9.6262       
        139.6774             22.4625               9.6237       
       140.37579             22.4057               9.621        
       141.07766             22.3409               9.618        
       141.78305             22.2668               9.6148       
       142.49197             22.1822               9.6114       
       143.20443             22.0854               9.6077       
       143.92045             21.9746               9.6038       
       144.64005             21.8471               9.5996       
       145.36325               21.7                9.5952       
       146.09007             21.5292               9.5905       
       146.82052             21.3295               9.5856       
       147.55462             21.0937               9.5805       
       148.29239             20.8121               9.5751       
       149.03386             20.4705               9.5695       
       149.77903             20.0477               9.5637       
       150.52792             19.5095               9.5576       
       151.28056             18.7967               9.5513       
       152.03696              17.793               9.5448       
       152.79715             16.2198               9.538        
       153.56113             13.0688               9.531        
       154.14295             2.08158               9.5255       
       154.25706             2.30352               24.699       
       154.32894             6.37497               24.616       
       155.10058             16.5698               23.763       
       155.87609             20.0324               22.957       
       156.65547             22.1796               22.195       
       157.43875             23.7146               21.476       
       158.22594              24.886               20.796       
       159.01707             25.8134               20.153       
       159.81215             26.5647               19.546       
       160.61121             27.1824               18.972       
       161.41427             27.6954               18.43        
       162.22134             28.1242               17.917       
       163.03245             28.4839               17.432       
       163.84761             28.7863               16.973       
       164.66685             29.0402               16.54        
       165.49018              29.253               16.13        
       166.31763             29.4304               15.742       
       167.14922              29.577               15.375       
       167.98497             29.6966               15.028       
       168.82489             29.7922               14.699       
       169.66902             29.8659               14.388       
       170.51736             29.9196               14.097       
       171.36995             29.9573               13.827       
        172.2268             29.9828               13.578       
       173.08793             29.9991               13.348       
       173.95337             30.0081               13.134       
       174.82314             30.0115               12.935       
       175.69726             30.0105               12.75        
       176.57574             30.0061               12.577       
       177.45862             29.9991               12.416       
       178.34591             29.9902               12.266       
       179.23764             29.9798               12.125       
       180.13383             29.9684               11.992       
        181.0345             29.9563               11.868       
       181.93967             29.9439               11.751       
       182.84937             29.9313               11.641       
       183.76362             29.9187               11.537       
       184.68244             29.9063               11.439       
       185.60585             29.8943               11.347       
       186.53388             29.8825               11.259       
       187.46655             29.8713               11.176       
       188.40388             29.8606               11.097       
        189.3459              29.852               11.021       
       190.29263             29.8424               10.95        
       191.24409             29.8334               10.882       
       192.20031              29.825               10.816       
       193.16131             29.8172               10.754       
       194.12712             29.8101               10.694       
       195.09776             29.8035               10.637       
       196.07325             29.7975               10.583       
       197.05361             29.7921               10.53        
       198.03888             29.7873               10.479       
       199.02907              29.783               10.431       
       200.02422             29.7793               10.384       
       201.02434              29.776               10.339       
       202.02946             29.7732               10.295       
       203.03961             29.7709               10.253       
       204.05481              29.769               10.212       
       205.07508             29.7675               10.172       
       206.10046             29.7664               10.134       
       207.13096             29.7657               10.097       
       208.16661             29.7653               10.061       
       209.20745             29.7652               10.026       
       210.25348             29.7655               9.9921       
       211.30475              29.766               9.959        
       212.36128             29.7667               9.9268       
       213.42308             29.7677               9.8954       
        214.4902             29.7689               9.8648       
       215.56265             29.7702               9.835        
       216.64046             29.7717               9.8059       
       217.72366             29.7734               9.7775       
       218.81228             29.7752               9.7497       
       219.90634             29.7771               9.7226       
       221.00588             29.7791               9.696        
        222.1109             29.7811               9.6701       
       223.22146             29.7832               9.6447       
       224.33757             29.7853               9.6198       
       225.45925             29.7874               9.5955       
       226.58655             29.7895               9.5716       
       227.71948             29.7915               9.5482       
       228.85808             29.7935               9.5253       
       230.00237             29.7955               9.5029       
       231.15238             29.7974               9.4809       
       232.30814             29.7991               9.4593       
       233.46969             29.8008               9.4381       
       234.63703             29.8023               9.4173       
       235.81022             29.8036               9.3969       
       236.98927             29.8048               9.3769       
       238.17422             29.8058               9.3573       
       239.36509             29.8065               9.3381       
       240.56191             29.8071               9.3192       
       241.76472             29.8074               9.3007       
       242.97355             29.8074               9.2825       
       244.18841             29.8071               9.2647       
       245.40936             29.8065               9.2472       
        246.6364             29.8056                9.23        
       247.86959             29.8043               9.2132       
       249.10893             29.8027               9.1967       
       250.35448             29.8006               9.1806       
       251.60625             29.7981               9.1648       
       252.86428             29.7951               9.1492       
        254.1286             29.7916               9.1341       
       255.39925             29.7875               9.1192       
       256.67624             29.7829               9.1046       
       257.95962             29.7777               9.0904       
       259.24942             29.7718               9.0765       
       260.54567             29.7651               9.0628       
        261.8484             29.7577               9.0495       
       263.15764             29.7494               9.0365       
       264.47343             29.7402               9.0238       
       265.79579              29.73                9.0115       
       267.12477             29.7187               8.9994       
        268.4604             29.7062               8.9877       
        269.8027             29.6923               8.9762       
       271.15171             29.6769               8.9651       
       272.50747             29.6598               8.9542       
       273.87001             29.6408               8.9437       
       275.23936             29.6196               8.9335       
       276.61556             29.5958               8.9236       
       277.99863              29.569               8.914        
       279.38863             29.5386               8.9047       
       280.78557             29.5039               8.8958       
        282.1895             29.4638               8.8871       
       283.60044             29.4169               8.8788       
       285.01845             29.3608               8.8707       
       286.44354             29.2919               8.863        
       287.87576             29.2039               8.8556       
       289.31514             29.0837               8.8485       
       290.76171             28.8976               8.8417       
       292.21552             28.4835               8.8352       
       292.62731             28.1482               8.8334       
       293.17269             28.1476               9.9758       
        293.6766             28.5284               9.9751       
       295.14498             28.9155               9.9735       
       296.62071             29.1008               9.9722       
       298.10381             29.2247               9.9711       
       299.59433             29.3182               9.9705       
        301.0923             29.3936               9.9701       
       302.59776             29.4569               9.9701       
       304.11075             29.5114               9.9704       
        305.6313             29.5594               9.971        
       307.15946              29.602               9.9719       
       308.69526             29.6404               9.9732       
       310.23873              29.675               9.9748       
       311.78993             29.7065               9.9767       
       313.34888             29.7352               9.9789       
       314.91562             29.7611               9.9814       
        316.4902             29.7845               9.9843       
       318.07265             29.8052               9.9874       
       319.66301             29.8233               9.9909       
       321.26133             29.8384               9.9947       
       322.86764             29.8499               9.9988       
       324.48197              29.857               10.003       
       326.10438             29.8579               10.008       
       327.73491             29.8488               10.013       
       329.37358              29.82                10.018       
       331.02045             29.7246               10.023       
       331.44831             29.6465               10.025       
       332.15172             29.6565               10.36        
       332.67555             29.7606               10.362       
       334.33893             29.8975               10.37        
       336.01062             29.9753               10.378       
       337.69068             30.0349               10.386       
       339.37913             30.0855               10.394       
       341.07602             30.1306               10.403       
        342.7814             30.1722               10.412       
       344.49531              30.211               10.421       
       346.21779             30.2479               10.43        
       347.94888             30.2831               10.44        
       349.68862             30.3171               10.45        
       351.43706             30.3501               10.46        
       353.19425             30.3821               10.47        
       354.96022             30.4134               10.48        
       356.73502              30.444               10.491       
        358.5187              30.474               10.501       
       360.31129             30.5035               10.512       
       362.11285             30.5326               10.523       
       363.92341             30.5612               10.535       
       365.74303             30.5894               10.546       
       367.57174             30.6172               10.558       
        369.4096             30.6447               10.569       
       371.25665             30.6718               10.581       
       373.11293             30.6986               10.593       
        374.9785              30.725               10.605       
       376.85339              30.751               10.618       
       378.73766             30.7767               10.63        
       380.63135             30.8019               10.642       
        382.5345             30.8267               10.655       
       384.44718             30.8509               10.668       
       386.36941             30.8747               10.68        
       388.30126             30.8977               10.693       
       390.24276             30.9201               10.706       
       392.19398             30.9415               10.719       
       394.15495             30.9619               10.732       
       396.12572             30.9811               10.745       
       398.10635             30.9987               10.757       
       400.09688             31.0144               10.77        
       402.09737             31.0275               10.783       
       404.10785             31.0374               10.796       
       406.12839             31.0426               10.809       
       408.15904             31.0411               10.822       
       410.19983             31.0287               10.835       
       412.25083             30.9962               10.848       
       414.31208             30.9136               10.861       
       415.72967             30.7302               10.87        
       416.38364             30.4221               11.397       
       416.87033             30.7496                11.4        
       418.46556              30.999               11.41        
       420.55789             31.1479               11.424       
       422.66068             31.2515               11.438       
       424.77398             31.3364               11.452       
       426.89785             31.4111               11.465       
       429.03234             31.4795               11.479       
        431.1775             31.5435               11.492       
       433.33339             31.6044               11.505       
       435.50006              31.663               11.518       
       437.67756             31.7198               11.531       
       439.86595             31.7752               11.544       
       442.06528             31.8296               11.557       
        444.2756              31.883               11.569       
       446.49698             31.9357               11.582       
       448.72947             31.9878               11.594       
       450.97311             32.0395               11.606       
       453.22798             32.0907               11.617       
       455.49412             32.1417               11.629       
       457.77159             32.1923               11.64        
       460.06045             32.2428               11.651       
       462.36075              32.293               11.662       
       464.67255             32.3492               11.673       
       466.99592             32.3992               11.683       
        469.3309             32.4491               11.693       
       471.67755              32.499               11.703       
       474.03594             32.5488               11.713       
       476.40612             32.5985               11.722       
       478.78815             32.6481               11.731       
       481.18209             32.6978               11.739       
        483.588              32.7474               11.747       
       486.00594             32.7969               11.755       
       488.43597             32.8465               11.763       
       490.87815              32.896               11.77        
       493.33254             32.9455               11.777       
        495.7992             32.9949               11.784       
        498.2782             33.0444               11.79        
       500.76959             33.0938               11.795       
       503.27344             33.1432               11.801       
        505.7898             33.1926               11.806       
       508.31875             33.2419               11.811       
       510.86035             33.2912               11.815       
       513.41465             33.3404               11.819       
       515.98172             33.3896               11.822       
       518.56163             33.4388               11.826       
       521.15444             33.4878               11.828       
       523.76021             33.5369               11.831       
       526.37901             33.5858               11.833       
       529.01091             33.6347               11.834       
       531.65596             33.6835               11.835       
       534.31424             33.7323               11.836       
       536.98581             33.7809               11.837       
       539.67074             33.8294               11.837       
        542.3691             33.8779               11.836       
       545.08094             33.9262               11.835       
       547.80635             33.9744               11.834       
       550.54538             34.0224               11.832       
        553.2981             34.0703               11.83        
        556.0646             34.1181               11.828       
       558.84492             34.1657               11.825       
       561.63914             34.2132               11.821       
       564.44734             34.2605               11.817       
       567.26958             34.3076               11.813       
       570.10592             34.3545               11.809       
       572.95645             34.4013               11.804       
       575.82123             34.4478               11.798       
       578.70034             34.4941               11.792       
       581.59384             34.5402               11.786       
       584.50181             34.5861               11.779       
       587.42432             34.6317               11.772       
       590.36144             34.6771               11.764       
       593.31325             34.7222               11.756       
       596.27982             34.7671               11.748       
       599.26122             34.8117               11.739       
       602.25752              34.856               11.73        
       605.26881               34.9                11.72        
       608.29515             34.9438               11.71        
       611.33663             34.9872               11.699       
       614.39331             35.0303               11.689       
       617.46528             35.0732               11.677       
        620.5526             35.1156               11.665       
       623.65537             35.1578               11.653       
       626.77364             35.1995               11.64        
       629.90751             35.2409               11.627       
       633.05705             35.2819               11.613       
       636.22234             35.3225               11.599       
       639.40345             35.3626               11.585       
       642.60046             35.4023               11.569       
       645.81347             35.4416               11.554       
       649.04253             35.4803               11.538       
       652.28775             35.5186               11.521       
       655.54919             35.5564               11.504       
       658.82693             35.5936               11.487       
       662.12107             35.6304               11.469       
       665.43167             35.6666               11.451       
       668.75883             35.7022               11.433       
       672.10262             35.7373               11.414       
       675.46314             35.7718               11.394       
       678.84045             35.8058               11.375       
       682.23466             35.8391               11.355       
       685.64583             35.8718               11.334       
       689.07406              35.904               11.313       
       692.51943             35.9355               11.292       
       695.98202             35.9664               11.271       
       699.46194             35.9966               11.249       
       702.95924             36.0262               11.227       
       706.47404             36.0551               11.204       
       710.00641             36.0833               11.181       
       713.55644             36.1107               11.157       
       717.12423             36.1374               11.133       
       720.70985             36.1633               11.109       
        724.3134             36.1884               11.085       
       727.93496             36.2128               11.06        
       731.57464             36.2364               11.035       
       735.23251             36.2592               11.01        
       738.90867             36.2811               10.984       
       742.60322             36.3023               10.959       
       746.31623             36.3226               10.933       
       750.04781             36.3421               10.907       
       753.79805             36.3608               10.88        
       757.56704             36.3785               10.853       
       761.35488             36.3954               10.826       
       765.16165             36.4115               10.799       
       768.98746             36.4266               10.772       
        772.8324             36.4408               10.745       
       776.69656             36.4541               10.717       
       780.58004             36.4665               10.689       
       784.48294             36.4779               10.661       
       788.40536             36.4883               10.633       
       792.34738             36.4978               10.604       
       796.30912             36.5063               10.576       
       800.29067             36.5138               10.547       
       804.29212             36.5203               10.518       
       808.31358             36.5258               10.489       
       812.35515             36.5302               10.46        
       816.41693             36.5336               10.431       
       820.49901             36.5359               10.402       
        824.6015             36.5371               10.372       
       828.72451             36.5372               10.343       
       832.86813             36.5362               10.313       
       837.03248             36.5341               10.283       
       841.21764             36.5307               10.253       
       845.42373             36.5263               10.223       
       849.65084             36.5206               10.193       
        853.8991             36.5137               10.163       
       858.16859             36.5056               10.133       
       862.45944             36.4962               10.103       
       866.77173             36.4855               10.073       
       871.10559             36.4736               10.042       
       875.46112             36.4603               10.012       
       879.83843             36.4469               9.9813       
       884.23762              36.431               9.9508       
       888.65881             36.4136               9.9203       
        893.1021             36.3948               9.8897       
       897.56761             36.3746               9.8591       
       902.05545             36.3529               9.8285       
       906.56573             36.3297               9.7979       
       911.09856              36.305               9.7672       
       915.65405             36.2786               9.7366       
       920.23232             36.2507               9.7059       
       924.83348             36.2212               9.6752       
       929.45765              36.19                9.6445       
       934.10494              36.157               9.6138       
       938.77546             36.1223               9.5832       
       943.46934             36.0859               9.5525       
       948.18668             36.0476               9.5219       
       952.92762             36.0074               9.4912       
       957.69226             35.9653               9.4606       
       962.48072             35.9213                9.43        
       967.29312             35.8752               9.3995       
       972.12959             35.8271               9.3689       
       976.99023             35.7769               9.3384       
       981.87519             35.7245               9.308        
       986.78456              35.67                9.2776       
       991.71848             35.6131               9.2472       
       996.67708             35.5541               9.2168       
       1001.6605             35.5075               9.1789       
       1006.6688             35.4827               9.1261       
       1011.7021             35.4478               9.0736       
       1016.7606             35.4039               9.0214       
       1021.8444             35.3516               8.9696       
       1026.9536             35.2915               8.9182       
       1032.0884             35.2241               8.8671       
       1037.2489             35.1497               8.8164       
       1042.4351             35.0684               8.766        
       1047.6473             34.9805               8.716        
       1052.8855             34.8859               8.6663       
       1058.1499             34.7847               8.6169       
       1063.4407             34.6769               8.5679       
       1068.7579             34.5624               8.5193       
       1074.1017             34.4411               8.4709       
       1079.4722             34.3129               8.4229       
       1084.8695             34.1775               8.3753       
       1090.2939             34.0347               8.3279       
       1095.7454             33.8842               8.2809       
       1101.2241             33.7257               8.2342       
       1106.7302             33.5589               8.1878       
       1112.2639             33.3833               8.1418       
       1117.8252             33.1985               8.0961       
       1123.4143             33.0039               8.0507       
       1129.0314              32.799               8.0056       
       1134.6765             32.5831               7.9608       
       1140.3499             32.3554               7.9163       
       1146.0517             32.1151               7.8721       
       1151.7819             31.8612               7.8283       
       1157.5408             31.5927               7.7847       
       1163.3285             31.3083               7.7415       
       1169.1452             31.0067               7.6985       
       1174.9909              30.686               7.6548       
       1180.8659             30.3445               7.6105       
       1186.7702             29.9798               7.5666       
        1192.704             29.5894               7.5229       
       1198.6676             29.1703               7.4795       
       1204.6609             28.7188               7.4365       
       1210.6842             28.2306               7.3938       
       1216.7376             27.7003               7.3513       
       1222.8213             27.1213               7.3092       
       1228.9354             26.4852               7.2673       
       1235.0801             25.7812               7.2258       
       1241.2555              24.995               7.1845       
       1247.4618             24.1072               7.1435       
       1253.6991             23.0911               7.1029       
       1259.9676             21.9047               7.0625       
       1266.2674             20.4841               7.0223       
       1272.5988             18.7174               6.9825       
       1278.9618             16.3805               6.943        
       1285.3566             12.8991               6.9037       
       1291.7833             5.58834               6.8647       
        1294.729              -12.71               6.8469       
       1295.0709             -13.0561              26.489       
       1298.2423              5.3553               26.389       
       1304.7335             11.5342               26.186       
       1311.2571             13.8769               25.985       
       1317.8134             14.7162               25.786       
       1324.4025             14.0991               25.588       
       1331.0245             8.65102               25.392       
       1332.1988             2.39694               25.357       
       1332.8011             2.31057               38.199       
       1337.6796             14.9106               37.98        
        1344.368             19.4254               37.683       
       1351.0899             22.2413               37.389       
       1357.8453              24.381               37.097       
       1364.6345             26.1366               36.807       
       1371.4577             27.6375               36.52        
        1378.315             28.9537               36.235       
       1385.2066             30.1281               35.952       
       1392.1326             31.1894               35.672       
       1399.0933             32.1577               35.394       
       1406.0887             33.0477               35.118       
       1413.1192             33.8708               34.844       
       1420.1848             34.6356               34.573       
       1427.2857             35.3491               34.303       
       1434.4221              36.017               34.036       
       1441.5942              36.644               33.771       
       1448.8022              37.234               33.509       
       1456.0462             37.7901               33.248       
       1463.3265             38.3152               32.989       
       1470.6431             38.8115               32.733       
       1477.9963             39.2812               32.479       
       1485.3863             39.7259               32.226       
       1492.8132              40.147               31.976       
       1500.2773             40.5459               31.728       
       1507.7787             40.9237               31.481       
       1515.3176             41.2811               31.237       
       1522.8942              41.619               30.995       
       1530.5086              41.938               30.754       
       1538.1612             42.2384               30.516       
        1545.852             42.5206               30.279       
       1553.5812             42.7846               30.045       
       1561.3491             43.0304               29.812       
       1569.1559             43.2576               29.581       
       1577.0017             43.4658               29.352       
       1584.8867             43.6539               29.125       
       1592.8111             43.8206                28.9        
       1600.7752             43.9641               28.676       
        1608.779             44.0814               28.454       
       1616.8229             44.1685               28.234       
        1624.907             44.2193               28.016       
       1633.0316              44.224                27.8        
       1641.1967             44.1663               27.585       
       1649.4027             44.0159               27.372       
       1657.6497             43.7067               27.161       
        1665.938              43.042               26.951       
       1674.0015             40.6438               26.75        
       1674.2677             40.3848               26.743       
       1677.1986              40.671               31.276       
        1682.639              43.008               31.109       
       1691.0522             44.3844               30.853       
       1699.5075             45.2282               30.599       
        1708.005             45.8623               30.348       
        1716.545             46.3795               30.098       
       1725.1278             46.8192               29.851       
       1733.7534             47.2017               29.606       
       1742.4222             47.5382               29.362       
       1751.1343             47.8347               29.12        
       1759.8899             48.0934               28.885       
       1768.6894             48.3245               28.668       
       1777.5328             48.5326               28.454       
       1786.4205             48.7158               28.243       
       1795.3526             48.8707               28.034       
       1804.3294             48.9917               27.829       
        1813.351             49.0667               27.626       
       1822.4178             49.0685               27.425       
       1831.5299             48.9126               27.227       
       1839.9858             48.0751               27.047       
       1840.6875             47.7976               27.032       
       1843.6141             48.1344               28.861       
       1849.8909             49.1843               28.714       
       1859.1404             49.8465                28.5        
       1868.4361             50.2957               28.289       
       1877.7783              50.657               28.08        
       1887.1672             50.9672               27.873       
        1896.603             51.2425               27.669       
        1906.086             51.4913               27.467       
       1915.6165             51.7182               27.267       
       1925.1945             51.9258               27.068       
       1934.8205             52.1149               26.875       
       1944.4946             52.2909               26.692       
       1954.2171             52.4563               26.511       
       1963.9882             52.6103               26.332       
       1973.8081             52.7525               26.156       
       1983.6772             52.8816               25.982       
       1993.5955             52.9957               25.811       
       2003.5635             53.0912               25.641       
       2013.5813             53.1611               25.474       
       2023.6492             53.1904               25.308       
       2033.7675             53.1357               25.144       
       2043.2385             52.7952               24.994       
       2043.9363             52.7239               24.983       
       2050.3613             52.8942               26.064       
        2054.156             53.2252               26.003       
       2064.4268             53.7063               25.84        
       2074.7489             54.0275               25.678       
       2085.1227             54.2903               25.518       
       2095.5483             54.5215               25.359       
        2106.026             54.7324               25.202       
       2116.5562             54.9288               25.046       
       2127.1389             55.1141               24.892       
       2137.7746             55.2905               24.739       
       2148.4635             55.4593               24.587       
       2159.2058             55.6224               24.438       
       2170.0018              55.781               24.291       
       2180.8519              55.936               24.143       
       2191.7561             56.0858               23.991       
       2202.7149             56.2307               23.841       
       2213.7285             56.3713               23.691       
       2224.7971             56.5079               23.543       
       2235.9211             56.6409               23.396       
       2247.1007             56.7706               23.25        
       2258.3362             56.8971               23.105       
       2269.6279             57.0207               22.961       
        2280.976             57.1417               22.818       
       2292.3809              57.26                22.676       
       2303.8428             57.3759               22.535       
        2315.362             57.4896               22.395       
       2326.9388             57.6011               22.255       
       2338.5735             57.7105               22.117       
       2350.2664             57.8181               21.98        
       2362.0177             57.9238               21.843       
       2373.8278             58.0279               21.707       
        2385.697             58.1305               21.573       
       2397.6254             58.2317               21.438       
       2409.6136             58.3307               21.301       
       2421.6616             58.4276               21.166       
       2433.7699             58.5224               21.031       
       2445.9388             58.6153               20.897       
       2458.1685             58.7064               20.764       
       2470.4593             58.7958               20.632       
       2482.8116             58.8835                20.5        
       2495.2257             58.9696               20.37        
       2507.7018             59.0542               20.24        
       2520.2403             59.1374               20.111       
       2532.8415             59.2191               19.983       
       2545.5057             59.2994               19.855       
       2558.2333             59.3784               19.728       
       2571.0244             59.4562               19.602       
       2583.8796             59.5328               19.477       
        2596.799              59.828               19.351       
       2609.7829             59.9021               19.223       
       2622.8319             59.9746               19.096       
        2635.946             60.0456               18.97        
       2649.1257             60.1154               18.845       
       2662.3714             60.1838               18.721       
       2675.6832             60.3943               18.594       
       2689.0617             60.4596               18.469       
        2702.507             60.5233               18.344       
       2716.0195             60.5855               18.22        
       2729.5996             60.6463               18.096       
       2743.2476             60.7057               17.974       
       2756.9638             60.7638               17.853       
       2770.7486             60.8207               17.732       
       2784.6024             60.8763               17.612       
       2798.5254             60.9309               17.493       
        2812.518             60.9843               17.376       
       2826.5806             61.0368               17.259       
       2840.7135             61.0882               17.142       
       2854.9171             61.1387               17.027       
       2869.1917             61.1884               16.913       
       2883.5376             61.2372               16.799       
       2897.9553             61.2854               16.686       
       2912.4451             61.3328               16.572       
       2927.0073             61.3795               16.458       
       2941.6424             61.4255               16.345       
       2956.3506             61.4711               16.234       
       2971.1323             61.5162               16.123       
        2985.988             61.5613               16.013       
       3000.9179             61.6075               15.903       
       3015.9225             61.6638               15.778       
       3031.0021             61.7137               15.654       
       3046.1571             61.7593               15.531       
       3061.3879             61.8015               15.41        
       3076.6949              61.841               15.289       
       3092.0783             61.8782               15.17        
       3107.5387             61.9134               15.051       
       3123.0764             61.9468               14.934       
       3138.6918             61.9786               14.818       
       3154.3853             62.0089               14.703       
       3170.1572             62.0378               14.589       
        3186.008             62.0654               14.476       
        3201.938             62.0918               14.364       
       3217.9477             62.1171               14.253       
       3234.0374             62.1413               14.143       
       3250.2076             62.1646               14.035       
       3266.4587             62.1868               13.927       
        3282.791             62.2082               13.82        
       3299.2049             62.2287               13.714       
       3315.7009             62.2484               13.609       
       3332.2794             62.2674               13.505       
       3348.9408             62.2856               13.402       
       3365.6856             62.4074               13.296       
        3382.514             62.4245               13.191       
       3399.4265             62.4405               13.087       
       3416.4237             62.4556               12.984       
       3433.5058             62.4697               12.882       
       3450.6733             62.4829               12.781       
       3467.9267             62.4953               12.681       
       3485.2663             62.5068               12.581       
       3502.6927             62.5176               12.483       
       3520.2061             62.5276               12.385       
       3537.8072             62.5369               12.289       
       3555.4962             62.5456               12.193       
       3573.2737             62.5535               12.098       
        3591.14              62.5608               12.004       
       3609.0957             62.5675               11.911       
       3627.1412             62.5737               11.818       
       3645.2769             62.5792               11.727       
       3663.5033             62.5843               11.636       
       3681.8208             62.5888               11.546       
       3700.2299             62.6415               11.455       
       3718.7311             62.6452               11.364       
       3737.3247             62.6482               11.274       
       3756.0114             62.6506               11.186       
       3774.7914             62.6523               11.097       
       3793.6654             62.6534               11.01        
       3812.6337             62.6538               10.924       
       3831.6969             62.6537               10.838       
       3850.8554             62.6531               10.753       
       3870.1096             62.6519               10.669       
       3889.4602             62.6502               10.585       
       3908.9075              62.648               10.502       
        3928.452             62.6452               10.42        
       3948.0943             62.6421               10.339       
       3967.8347             62.6384               10.258       
       3987.6739             62.6343               10.178       
        4055.024             63.0127               9.9154       
        4334.821             62.8643               8.9317       
        4633.924             62.6369               8.055        
        4953.664             62.3597               7.2743       
        5295.467             62.0314               6.578        
        5660.855             61.6424               5.9509       
        6051.453             61.1523               5.3613       
        6469.004             60.4954               4.8341       
        6915.365             59.5372               4.3657       
        7392.525             57.7675               3.9446       
        7634.298             55.7189               3.7521       
        7751.15              52.7186               3.665        
        7782.31              49.2132               3.6423       
        7829.051             52.7159               10.445       
        7902.609             55.0591               10.238       
        7945.902             55.7528               10.119       
        8408.988             57.4449               9.0602       
        8447.89              57.2929               8.9898       
        8537.697              56.328               8.8326       
        8572.019             54.6603               8.7742       
        8623.503             56.5372               12.108       
        8752.212             58.2818               11.765       
        8864.884             58.8592               11.478       
        9000.571             58.7877               11.188       
        9030.794             58.3174               11.127       
        9036.754             58.0648               11.115       
        9091.029             59.1577               12.735       
        9226.716             60.4204               12.459       
        9653.919              62.252               11.649       
        10320.04             63.8114               10.464       
        11032.12              64.748               9.3197       
        11793.34             65.3232               8.3321       
        12607.08              65.714               7.4556       
        13476.97             65.9725               6.6764       
        14406.88             66.1399               5.9834       
        15400.95             66.2445               5.3666       
        16463.62             66.3671               4.8016       
        17599.61             66.4171               4.2936       
        18813.98             66.4299               3.8318       
        20112.15              66.384               3.419        
        21499.88             66.3205               3.0534       
        22983.38             66.2462               2.7293       
        24569.23             66.1656               2.4418       
        26264.5              66.0849               2.1865       
        28076.76             66.0029               1.9442       
        30014.05             65.9027               1.7255       
        32085.02             65.7934               1.5327       
        34298.89             65.6765               1.3618       
        36665.51             65.5487               1.2085       
        39195.43             65.4053               1.072        
        41899.92             65.2349              0.94701       
        44791.01             65.0163              0.83701       
        47881.59             64.6984                0.74        
        51185.42             64.0762              0.65474       
        52712.73             63.3752              0.62051       
        53519.56             62.2214              0.60356       
        53734.71             60.8393              0.59917       
        54057.44             62.2361               3.3135       
        54717.21             63.3622               3.2518       
        54864.27             63.4983               3.2383       
        58492.7              64.8889               2.9264       
        62528.7              65.4469               2.6252       
        66843.18             65.7676               2.3528       
        71455.36             65.9746               2.1076       
        76385.78             66.1132               1.8865       
        81656.4              66.2115               1.6863       
        87290.69             66.2745               1.5027       
        93313.74             66.3134               1.3393       
        99752.39             66.3358               1.1938       
        106635.3             66.3469               1.0643       
        113993.1             66.3776               0.9454       
        121858.7             66.3708              0.83942       
        130266.9             66.3589              0.74538       
        139255.3             66.3437              0.66194       
        148864.0             66.3263               0.5879       
        159135.6             66.3078              0.52218       
        170115.9             66.2886              0.46385       
        181853.9             66.2693              0.41207       
        194401.8             66.2503               0.3661       
        207815.6             66.2317              0.32528       
        222154.8             66.2136              0.28903       
        237483.5             66.1961               0.2572       
        253869.9              66.18               0.22971       
        271386.9             66.1651              0.20517       
        290112.6             66.1513              0.18327       
        310130.4             66.1386              0.16371       
        331529.4             66.1268              0.14625       
        354404.9             66.1159              0.13066       
        378858.8             66.1058              0.11674       
        405000.1             66.0966              0.10431       
        432945.1              66.088              0.093206      
