# Er
# Form Factors from Chantler Tables
# DOI: https://dx.doi.org/10.18434/T4HS32
# automatically retrived 2019-02-27 using URL https://physics.nist.gov/cgi-bin/ffast/ffast.pl
#
# Z = 68
# f_rel = -1.1649 e/atom  (Relativistic correction estimate)
# f_NT = -0.015166 e/atom (Nuclear Thomson correction)


#        E (eV)            f1 (e/atom)          f2 (e/atom)     
         4.214               11.3349                0.0         
         4.2785              11.2763                0.0         
         4.2957              11.2116                0.0         
         4.3215              11.2735              0.12433       
         4.386               11.3244              0.12488       
         10.69                10.926              0.28242       
        11.42761             10.8355              0.31136       
        12.21612             10.7304               0.3445       
        13.05903              11.014              0.38246       
        13.9601              10.8707              0.42594       
        14.92335             10.7017              0.47574       
        15.95306             10.5009              0.53277       
        17.05382             10.2594              0.59806       
        18.23053             9.96477              0.67274       
        19.48844             9.59762              0.75803       
        20.83314             9.12687              0.85526       
        22.27063              8.498               0.96593       
        23.8073              7.60417               1.0916       
        25.45001             6.19628               1.2341       
        27.20606             3.47413               1.3952       
         28.812              -3.98499               1.55        
        29.08327             -7.97707              1.5769       
         29.253              -13.2047              1.5937       
        29.3706              -24.7216              1.6055       
         29.547              -12.0411              24.533       
         29.988             -0.820267              23.362       
        31.09002             8.00407               20.782       
        33.23523             14.1917               16.869       
        35.52846             16.7708               13.748       
        37.97993             17.8228               11.346       
        40.60054              18.109               9.5843       
        43.40198             18.0104               8.3567       
        46.39671             17.7364               7.5582       
        49.59809             17.4051               7.0975       
        53.02035             17.0826               6.9015       
        56.67876             16.8045               6.9136       
         58.604              16.6851               6.9842       
         59.501              16.6278               7.0288       
        59.7402              16.6014               7.0418       
         60.099              16.6008               7.0928       
        60.58959             16.5898               7.1229       
         60.996              16.5783               7.1492       
        64.77028              16.496               7.4422       
        69.23942             16.4964               7.8749       
        74.01695             16.6185               8.4045       
        79.12411              16.892               9.0191       
        84.58368             17.3191               9.4355       
        90.41995             17.7819               9.7393       
        96.65893             18.2536               10.03        
         100.0               20.7708               10.169       
         100.5               20.8075               10.189       
        101.0025             20.8444               10.209       
       101.50751             20.8813               10.229       
       102.01505             20.9183               10.248       
       102.52513             20.9554               10.268       
       103.03775             20.9925               10.287       
       103.55294             21.0297               10.306       
        104.0707              21.067               10.325       
       104.59106             21.1043               10.343       
       105.11401             21.1417               10.362       
       105.63958             21.1791               10.38        
       106.16778             21.2165               10.398       
       106.69862              21.254               10.416       
       107.23211             21.2915               10.434       
       107.76827             21.3291               10.452       
       108.30712             21.3666               10.469       
       108.84865             21.4042               10.486       
       109.39289             21.4417               10.503       
       109.93986             21.4793               10.52        
       110.48956             21.5168               10.537       
       111.04201             21.5543               10.553       
       111.59722             21.5918               10.569       
        112.1552             21.6293               10.585       
       112.71598             21.6668               10.601       
       113.27956             21.7041               10.617       
       113.84596             21.7415               10.632       
       114.41519             21.7787               10.647       
       114.98726             21.8159               10.662       
        115.5622             21.8531               10.677       
       116.14001             21.8901               10.691       
       116.72071              21.927               10.706       
       117.30431             21.9638               10.72        
       117.89083             22.0005               10.734       
       118.48029              22.037               10.747       
       119.07269             22.0734               10.761       
       119.66805             22.1096               10.774       
       120.26639             22.1457               10.787       
       120.86772             22.1816               10.799       
       121.47206             22.2173               10.812       
       122.07942             22.2528               10.824       
       122.68982              22.288               10.836       
       123.30327              22.323               10.848       
       123.91979             22.3578               10.859       
       124.53939             22.3922               10.871       
       125.16208             22.4264               10.882       
       125.78789             22.4603               10.892       
       126.41683             22.4938               10.903       
       127.04892              22.527               10.913       
       127.68416             22.5598               10.923       
       128.32258             22.5922               10.933       
       128.96419             22.6242               10.942       
       129.60902             22.6557               10.952       
       130.25706             22.6868               10.961       
       130.90835             22.7173               10.969       
       131.56289             22.7473               10.978       
        132.2207             22.7768               10.986       
       132.88181             22.8056               10.994       
       133.54621             22.8338               11.002       
       134.21395             22.8614               11.009       
       134.88502             22.8882               11.016       
       135.55944             22.9142               11.023       
       136.23724             22.9394               11.03        
       136.91842             22.9638               11.036       
       137.60302             22.9872               11.043       
       138.29103             23.0097               11.048       
       138.98249             23.0311               11.054       
        139.6774             23.0514               11.059       
       140.37579             23.0705               11.064       
       141.07766             23.0883               11.069       
       141.78305             23.1047               11.074       
       142.49197             23.1197               11.078       
       143.20443             23.1331               11.082       
       143.92045             23.1448               11.086       
       144.64005             23.1547               11.089       
       145.36325             23.1626               11.092       
       146.09007             23.1683               11.095       
       146.82052             23.1717               11.098       
       147.55462             23.1726                11.1        
       148.29239             23.1707               11.102       
       149.03386             23.1658               11.104       
       149.77903             23.1576               11.105       
       150.52792             23.1458               11.106       
       151.28056             23.1299               11.107       
       152.03696             23.1095               11.108       
       152.79715             23.0842               11.108       
       153.56113             23.0532               11.108       
       154.32894             23.0158               11.108       
       155.10058             22.9713               11.108       
       155.87609             22.9186               11.107       
       156.65547             22.8563               11.106       
       157.43875             22.7829               11.105       
       158.22594             22.6965               11.103       
       159.01707             22.5945               11.101       
       159.81215             22.4735               11.099       
       160.61121             22.3291               11.097       
       161.41427             22.1551               11.094       
       162.22134             21.9426               11.091       
       163.03245             21.6779               11.088       
       163.84761             21.3391               11.085       
       164.66685             20.8872               11.081       
       165.49018             20.2424               11.077       
       166.31763             19.1976               11.073       
       167.14922             16.8073               11.068       
       167.51369             12.7085               11.066       
       167.68632             12.8511               19.211       
       167.98497             16.9178               19.05        
       168.82489              20.202               18.615       
       169.66902              21.697               18.203       
       170.51736              22.632               17.812       
       171.36995             23.2653               17.442       
        172.2268             23.6915               17.091       
       173.08793             23.9468               16.759       
       173.95337              24.03                16.444       
       174.82314             23.8895               16.145       
       175.69726             23.3199               15.861       
       176.57574             20.3429               15.593       
       176.60087             19.9814               15.585       
       176.79912              20.134               20.764       
       177.45862             23.9084               20.369       
       178.34591              25.554               19.863       
       179.23764             26.5431               19.384       
       180.13383             27.2564               18.93        
        181.0345             27.8061               18.499       
       181.93967             28.2463               18.089       
       182.84937              28.606               17.701       
       183.76362             28.9034               17.333       
       184.68244             29.1503               16.984       
       185.60585             29.3557               16.655       
       186.53388             29.5275               16.346       
       187.46655              29.672               16.057       
       188.40388             29.7938               15.784       
        189.3459             29.8966               15.528       
       190.29263             29.9834               15.287       
       191.24409             30.0563               15.059       
       192.20031             30.1174               14.845       
       193.16131              30.168               14.642       
       194.12712             30.2094               14.451       
       195.09776             30.2423               14.271       
       196.07325             30.2681               14.103       
       197.05361             30.2886               13.945       
       198.03888             30.3049               13.799       
       199.02907              30.318               13.661       
       200.02422             30.3287               13.532       
       201.02434             30.3374               13.411       
       202.02946             30.3447               13.297       
       203.03961             30.3508               13.19        
       204.05481             30.3562               13.089       
       205.07508             30.3609               12.993       
       206.10046             30.3653               12.903       
       207.13096             30.3695               12.817       
       208.16661             30.3736               12.736       
       209.20745             30.3778               12.659       
       210.25348              30.382               12.586       
       211.30475             30.3864               12.516       
       212.36128              30.391               12.449       
       213.42308             30.3958               12.385       
        214.4902             30.4009               12.324       
       215.56265             30.4064               12.266       
       216.64046             30.4121               12.21        
       217.72366             30.4182               12.156       
       218.81228             30.4246               12.104       
       219.90634             30.4313               12.055       
       221.00588             30.4384               12.007       
        222.1109             30.4457               11.961       
       223.22146             30.4534               11.916       
       224.33757             30.4613               11.873       
       225.45925             30.4695               11.831       
       226.58655              30.478               11.791       
       227.71948             30.4868               11.752       
       228.85808             30.4957               11.714       
       230.00237             30.5049               11.677       
       231.15238             30.5143               11.642       
       232.30814             30.5239               11.607       
       233.46969             30.5336               11.573       
       234.63703             30.5434               11.54        
       235.81022             30.5534               11.508       
       236.98927             30.5635               11.477       
       238.17422             30.5737               11.446       
       239.36509              30.584               11.416       
       240.56191             30.5943               11.387       
       241.76472             30.6047               11.359       
       242.97355              30.615               11.331       
       244.18841             30.6254               11.303       
       245.40936             30.6358               11.277       
        246.6364             30.6461               11.251       
       247.86959             30.6564               11.225       
       249.10893             30.6666                11.2        
       250.35448             30.6767               11.175       
       251.60625             30.6868               11.151       
       252.86428             30.6967               11.127       
        254.1286             30.7064               11.104       
       255.39925             30.7161               11.081       
       256.67624             30.7255               11.059       
       257.95962             30.7348               11.037       
       259.24942             30.7438               11.015       
       260.54567             30.7526               10.994       
        261.8484             30.7612               10.973       
       263.15764             30.7695               10.953       
       264.47343             30.7776               10.933       
       265.79579             30.7853               10.913       
       267.12477             30.7927               10.893       
        268.4604             30.7997               10.874       
        269.8027             30.8064               10.855       
       271.15171             30.8127               10.837       
       272.50747             30.8186               10.819       
       273.87001              30.824               10.801       
       275.23936              30.829               10.784       
       276.61556             30.8334               10.767       
       277.99863             30.8373               10.75        
       279.38863             30.8406               10.733       
       280.78557             30.8433               10.717       
        282.1895             30.8453               10.701       
       283.60044             30.8466               10.686       
       285.01845             30.8471               10.67        
       286.44354             30.8468               10.655       
       287.87576             30.8456               10.641       
       289.31514             30.8434               10.626       
       290.76171             30.8401               10.612       
       292.21552             30.8356               10.598       
        293.6766             30.8299               10.585       
       295.14498             30.8227               10.572       
       296.62071             30.8138               10.559       
       298.10381             30.8032               10.546       
       299.59433             30.7905               10.534       
        301.0923             30.7754               10.522       
       302.59776             30.7576               10.51        
       304.11075             30.7365               10.499       
        305.6313             30.7116               10.488       
       307.15946             30.6819               10.477       
       308.69526             30.6463               10.467       
       310.23873             30.6031               10.456       
       311.78993             30.5497               10.447       
       313.34888             30.4818               10.437       
       314.91562             30.3915               10.428       
        316.4902             30.2622               10.419       
       318.07265              30.046               10.41        
       319.66301             29.3972               10.402       
       320.33919             29.4022               11.582       
       321.26133              29.901               11.58        
       322.86764             30.2189               11.576       
       324.48197             30.3963               11.573       
       326.10438             30.5222               11.57        
       327.73491              30.621               11.567       
       329.37358             30.7031               11.565       
       331.02045             30.7738               11.563       
       332.67555             30.8362               11.561       
       334.33893             30.8922               11.56        
       336.01062             30.9432               11.558       
       337.69068             30.9899               11.558       
       339.37913             31.0332               11.557       
       341.07602             31.0734               11.557       
        342.7814              31.111               11.557       
       344.49531              31.146               11.557       
       346.21779             31.1788               11.558       
       347.94888             31.2093               11.559       
       349.68862             31.2376               11.56        
       351.43706             31.2635               11.561       
       353.19425             31.2869               11.563       
       354.96022             31.3075               11.565       
       356.73502             31.3245               11.568       
        358.5187             31.3368               11.57        
       360.31129             31.3425               11.573       
       362.11285             31.3371               11.576       
       363.92341             31.3077               11.579       
       365.74303              31.17                11.583       
       365.76056             31.1662               11.583       
       366.63944             31.1807               11.915       
       367.57174              31.316               11.918       
        369.4096             31.4363               11.924       
       371.25665             31.5149               11.93        
       373.11293             31.5786               11.936       
        374.9785             31.6344               11.942       
       376.85339             31.6853               11.948       
       378.73766             31.7328               11.955       
       380.63135             31.7778               11.962       
        382.5345              31.821               11.969       
       384.44718             31.8627               11.976       
       386.36941             31.9031               11.984       
       388.30126             31.9424               11.991       
       390.24276             31.9809               11.999       
       392.19398             32.0186               12.007       
       394.15495             32.0557               12.015       
       396.12572             32.0921               12.023       
       398.10635             32.1279               12.032       
       400.09688             32.1632               12.04        
       402.09737              32.198               12.049       
       404.10785             32.2323               12.058       
       406.12839             32.2661               12.067       
       408.15904             32.2994               12.076       
       410.19983             32.3322               12.085       
       412.25083             32.3645               12.094       
       414.31208             32.3962               12.103       
       416.38364             32.4272               12.112       
       418.46556             32.4576               12.122       
       420.55789             32.4872               12.131       
       422.66068             32.5159               12.14        
       424.77398             32.5436               12.15        
       426.89785              32.57                12.159       
       429.03234             32.5948               12.169       
        431.1775             32.6178               12.178       
       433.33339             32.6384               12.188       
       435.50006             32.6558               12.197       
       437.67756             32.6689               12.207       
       439.86595             32.6758               12.216       
       442.06528              32.673               12.226       
        444.2756             32.6529               12.235       
       446.49698             32.5932               12.244       
       448.43083             32.4053               12.252       
       448.72947             32.3132               12.254       
       449.76915             32.4302               12.777       
       450.97311             32.6227               12.782       
       453.22798             32.7958               12.793       
       455.49412             32.9111               12.803       
       457.77159             33.0047               12.813       
       460.06045             33.0871               12.823       
       462.36075             33.1625               12.833       
       464.67255             33.2332               12.842       
       466.99592             33.3006               12.852       
        469.3309             33.3656               12.861       
       471.67755             33.4287               12.871       
       474.03594             33.4903               12.88        
       476.40612             33.5507               12.889       
       478.78815             33.6101               12.897       
       481.18209             33.6688               12.906       
        483.588              33.7269               12.914       
       486.00594             33.7844               12.923       
       488.43597             33.8415               12.931       
       490.87815             33.8983               12.939       
       493.33254             33.9547               12.946       
        495.7992             34.0109               12.953       
        498.2782             34.0669               12.961       
       500.76959             34.1227               12.967       
       503.27344              34.192               12.974       
        505.7898             34.2476               12.98        
       508.31875             34.3031               12.986       
       510.86035             34.3584               12.992       
       513.41465             34.4137               12.997       
       515.98172             34.4689               13.002       
       518.56163              34.524               13.007       
       521.15444              34.579               13.011       
       523.76021              34.634               13.015       
       526.37901              34.689               13.019       
       529.01091             34.7439               13.022       
       531.65596             34.8116               13.025       
       534.31424             34.8665               13.028       
       536.98581             34.9213               13.03        
       539.67074              34.976               13.032       
        542.3691             35.0307               13.033       
       545.08094             35.0853               13.035       
       547.80635             35.1399               13.035       
       550.54538             35.1944               13.036       
        553.2981             35.2489               13.036       
        556.0646             35.3032               13.035       
       558.84492             35.3575               13.034       
       561.63914             35.4118               13.033       
       564.44734             35.4659               13.031       
       567.26958              35.52                13.029       
       570.10592             35.5739               13.027       
       572.95645             35.6278               13.024       
       575.82123             35.6815               13.021       
       578.70034             35.7351               13.017       
       581.59384             35.7886               13.013       
       584.50181             35.8419               13.008       
       587.42432             35.8951               13.003       
       590.36144             35.9482               12.998       
       593.31325             36.0011               12.992       
       596.27982             36.0539               12.986       
       599.26122             36.1064               12.979       
       602.25752             36.1588               12.972       
       605.26881              36.211               12.965       
       608.29515              36.263               12.957       
       611.33663             36.3148               12.948       
       614.39331             36.3664               12.94        
       617.46528             36.4178               12.93        
        620.5526             36.4689               12.921       
       623.65537             36.5198               12.911       
       626.77364             36.5705                12.9        
       629.90751             36.6209               12.889       
       633.05705              36.671               12.878       
       636.22234             36.7208               12.866       
       639.40345             36.7704               12.854       
       642.60046             36.8197               12.841       
       645.81347             36.8687               12.828       
       649.04253             36.9173               12.815       
       652.28775             36.9657               12.801       
       655.54919             37.0137               12.786       
       658.82693             37.0614               12.772       
       662.12107             37.1088               12.757       
       665.43167             37.1558               12.741       
       668.75883             37.2024               12.725       
       672.10262             37.2487               12.709       
       675.46314             37.2946               12.692       
       678.84045             37.3401               12.675       
       682.23466             37.3852               12.657       
       685.64583             37.4298               12.639       
       689.07406             37.4741               12.62        
       692.51943             37.5178               12.601       
       695.98202             37.5612               12.582       
       699.46194              37.604               12.562       
       702.95924             37.6464               12.542       
       706.47404             37.6883               12.521       
       710.00641             37.7297                12.5        
       713.55644             37.7705               12.478       
       717.12423             37.8108               12.457       
       720.70985             37.8506               12.434       
        724.3134             37.8898               12.411       
       727.93496             37.9284               12.388       
       731.57464             37.9665               12.365       
       735.23251             38.0039               12.341       
       738.90867             38.0408               12.317       
       742.60322              38.077               12.292       
       746.31623             38.1126               12.267       
       750.04781             38.1476               12.242       
       753.79805             38.1819               12.216       
       757.56704             38.2156               12.19        
       761.35488             38.2485               12.163       
       765.16165             38.2808               12.136       
       768.98746             38.3123               12.109       
        772.8324              38.343               12.081       
       776.69656              38.373               12.053       
       780.58004             38.4022               12.025       
       784.48294             38.4306               11.997       
       788.40536             38.4582               11.968       
       792.34738              38.485               11.939       
       796.30912             38.5111               11.91        
       800.29067             38.5363               11.88        
       804.29212             38.5606               11.85        
       808.31358             38.5842               11.821       
       812.35515             38.6069               11.79        
       816.41693             38.6287               11.76        
       820.49901             38.6497               11.729       
        824.6015             38.6698               11.699       
       828.72451              38.689               11.668       
       832.86813             38.7073               11.637       
       837.03248             38.7247               11.605       
       841.21764             38.7412               11.574       
       845.42373             38.7567               11.542       
       849.65084             38.7713               11.511       
        853.8991              38.785               11.479       
       858.16859             38.7977               11.447       
       862.45944             38.8094               11.414       
       866.77173             38.8201               11.382       
       871.10559             38.8298               11.35        
       875.46112             38.8386               11.317       
       879.83843             38.8463               11.285       
       884.23762             38.8529               11.252       
       888.65881             38.8585               11.219       
        893.1021             38.8631               11.186       
       897.56761             38.8665               11.154       
       902.05545             38.8689               11.121       
       906.56573             38.8702               11.088       
       911.09856             38.8703               11.054       
       915.65405             38.8693               11.021       
       920.23232             38.8672               10.988       
       924.83348             38.8639               10.955       
       929.45765             38.8594               10.922       
       934.10494             38.8537               10.888       
       938.77546             38.8467               10.855       
       943.46934             38.8386               10.822       
       948.18668             38.8291               10.788       
       952.92762             38.8184               10.755       
       957.69226             38.8064               10.722       
       962.48072             38.7929               10.688       
       967.29312             38.7782               10.655       
       972.12959             38.7622               10.621       
       976.99023             38.7448               10.588       
       981.87519              38.726               10.555       
       986.78456             38.7057               10.522       
       991.71848              38.684               10.488       
       996.67708             38.6607               10.455       
       1001.6605             38.6781               10.412       
       1006.6688             38.7605               10.35        
       1011.7021             38.8201               10.288       
       1016.7606              38.862               10.227       
       1021.8444             38.8895               10.166       
       1026.9536             38.9049               10.106       
       1032.0884             38.9099               10.046       
       1037.2489              38.906               9.9865       
       1042.4351             38.8941               9.9274       
       1047.6473              38.875               9.8688       
       1052.8855             38.8493               9.8106       
       1058.1499             38.8175               9.7528       
       1063.4407              38.78                9.6955       
       1068.7579             38.7372               9.6386       
       1074.1017             38.6892               9.582        
       1079.4722             38.6362               9.5259       
       1084.8695             38.5784               9.4702       
       1090.2939             38.5159               9.4149       
       1095.7454             38.4487                9.36        
       1101.2241              38.378               9.3055       
       1106.7302             38.3015               9.2514       
       1112.2639             38.2205               9.1977       
       1117.8252             38.1347               9.1444       
       1123.4143             38.0443               9.0914       
       1129.0314              37.949               9.0388       
       1134.6765             37.8488               8.9866       
       1140.3499             37.7437               8.9347       
       1146.0517             37.6333               8.8832       
       1151.7819             37.5177               8.8321       
       1157.5408             37.3966               8.7813       
       1163.3285             37.2698               8.7309       
       1169.1452             37.1371               8.6809       
       1174.9909             36.9982               8.6312       
       1180.8659             36.8529               8.5819       
       1186.7702              36.701               8.5329       
        1192.704             36.5419               8.4843       
       1198.6676             36.3755               8.436        
       1204.6609             36.2012               8.3881       
       1210.6842             36.0187               8.3405       
       1216.7376             35.8274               8.2933       
       1222.8213             35.6267               8.2464       
       1228.9354             35.4162               8.1998       
       1235.0801              35.195               8.1536       
       1241.2555             34.9624               8.1076       
       1247.4618             34.7177               8.0621       
       1253.6991             34.4597               8.0168       
       1259.9676             34.1875               7.9719       
       1266.2674             33.8997               7.9272       
       1272.5988              33.595               7.8829       
       1278.9618             33.2718               7.839        
       1285.3566             32.9281               7.7938       
       1291.7833             32.5616               7.7486       
       1298.2423              32.17                7.7038       
       1304.7335              31.75                7.6593       
       1311.2571             31.2982               7.6151       
       1317.8134             30.8101               7.5713       
       1324.4025             30.2806               7.5277       
       1331.0245             29.7029               7.4845       
       1337.6796             29.0689               7.4416       
        1344.368             28.3678               7.399        
       1351.0899             27.5859               7.3567       
       1357.8453             26.7029               7.3147       
       1364.6345             25.6921               7.273        
       1371.4577             24.5128               7.2316       
        1378.315             23.1005               7.1905       
       1385.2066             21.3426               7.1496       
       1392.1326             19.0125               7.1091       
       1399.0933             15.5226               7.0689       
       1406.0887             8.03916               7.0289       
        1409.097             -9.27823              7.0119       
       1409.5029             -9.62017              26.576       
       1413.1192             8.49489               26.471       
       1420.1848             14.5127               26.268       
       1427.2857             16.9061               26.066       
       1434.4221             17.9144               25.866       
       1441.5942             17.7593               25.668       
       1448.8022             15.3518               25.471       
       1452.9192             6.05814               25.36        
       1453.6808             5.98292               38.139       
       1456.0462             14.4499               38.042       
       1463.3265             20.8507               37.746       
       1470.6431             24.0594               37.451       
       1477.9963              26.366               37.158       
       1485.3863             28.2119               36.868       
       1492.8132              29.768               36.58        
       1500.2773             31.1205               36.295       
       1507.7787              32.32                36.011       
       1515.3176              33.399               35.73        
       1522.8942              34.38                35.452       
       1530.5086             35.2792               35.175       
       1538.1612             36.1088               34.901       
        1545.852             36.8781               34.629       
       1553.5812             37.5947               34.36        
       1561.3491             38.2644               34.092       
       1569.1559             38.8921               33.827       
       1577.0017             39.4818               33.564       
       1584.8867              40.037               33.302       
       1592.8111             40.5605               33.043       
       1600.7752             41.0546               32.787       
        1608.779             41.5215               32.532       
       1616.8229             41.9628               32.279       
        1624.907              42.38                32.028       
       1633.0316             42.7745               31.78        
       1641.1967             43.1472               31.533       
       1649.4027              43.499               31.288       
       1657.6497             43.8306               31.046       
        1665.938             44.1425               30.805       
       1674.2677              44.435               30.566       
        1682.639             44.7083               30.329       
       1691.0522             44.9622               30.095       
       1699.5075             45.1965               29.862       
        1708.005             45.4105               29.63        
        1716.545             45.6033               29.401       
       1725.1278             45.7732               29.174       
       1733.7534             45.9182               28.948       
       1742.4222              46.035               28.724       
       1751.1343             46.1189               28.502       
       1759.8899             46.1625               28.282       
       1768.6894             46.1543               28.064       
       1777.5328             46.0738               27.847       
       1786.4205             45.8818               27.632       
       1795.3526              45.485               27.419       
       1804.3294             44.5513               27.207       
       1809.8795             42.6606               27.078       
        1813.351             42.3695               31.752       
       1813.7205             42.7054               31.741       
       1822.4178             45.5466               31.481       
       1831.5299              46.716               31.213       
       1840.6875             47.5047               30.947       
       1849.8909             48.1184               30.683       
       1859.1404             48.6274               30.421       
       1868.4361             49.0644               30.162       
       1877.7783             49.4466               29.906       
       1887.1672             49.7839               29.651       
        1896.603             50.0811               29.398       
        1906.086             50.3408               29.16        
       1915.6165             50.5784               28.938       
       1925.1945             50.7951               28.718       
       1934.8205             50.9898               28.502       
       1944.4946             51.1607               28.289       
       1954.2171              51.305               28.079       
       1963.9882              51.417               27.871       
       1973.8081             51.4853               27.665       
       1983.6772             51.4844               27.463       
       1993.5955             51.3397               27.263       
       2003.5635             50.5184               27.065       
       2003.6337             50.5004               27.064       
       2007.9663             50.5651               28.901       
       2013.5813             51.4684               28.777       
       2023.6492             52.1751               28.558       
       2033.7675             52.6349               28.342       
       2043.9363             52.9986               28.128       
        2054.156             53.3076               27.917       
       2064.4268             53.5797               27.709       
       2074.7489             53.8235               27.502       
       2085.1227             54.0442               27.298       
       2095.5483             54.2441               27.097       
        2106.026             54.4238               26.899       
       2116.5562             54.5884               26.715       
       2127.1389              54.741               26.533       
       2137.7746             54.8801               26.353       
       2148.4635             55.0036               26.177       
       2159.2058             55.1081               26.002       
       2170.0018             55.1871               25.83        
       2180.8519             55.2263               25.66        
       2191.7561              55.186               25.492       
       2202.2856             54.8733               25.332       
       2202.7149             54.8392               25.326       
       2210.7145             54.9879               26.387       
       2213.7285             55.2349               26.341       
       2224.7971             55.7415               26.174       
       2235.9211             56.0726               26.008       
       2247.1007             56.3423               25.844       
       2258.3362             56.5792               25.682       
       2269.6279             56.7951               25.521       
        2280.976             56.9959               25.362       
       2292.3809             57.1853               25.204       
       2303.8428             57.3655               25.048       
        2315.362             57.5378               24.893       
       2326.9388              57.704               24.741       
       2338.5735             57.8655               24.591       
       2350.2664             58.0232               24.442       
       2362.0177              58.177               24.29        
       2373.8278             58.3257               24.137       
        2385.697             58.4699               23.984       
       2397.6254             58.6099               23.833       
       2409.6136             58.7462               23.683       
       2421.6616             58.8791               23.535       
       2433.7699             59.0087               23.387       
       2445.9388             59.1353               23.24        
       2458.1685             59.2591               23.094       
       2470.4593             59.3802               22.95        
       2482.8116             59.4988               22.806       
       2495.2257             59.6151               22.663       
       2507.7018             59.7291               22.521       
       2520.2403             59.8409               22.38        
       2532.8415             59.9507               22.24        
       2545.5057             60.0586               22.101       
       2558.2333             60.1646               21.962       
       2571.0244             60.2689               21.825       
       2583.8796             60.3715               21.688       
        2596.799             60.4727               21.552       
       2609.7829             60.5725               21.416       
       2622.8319             60.6703               21.279       
        2635.946              60.766               21.143       
       2649.1257             60.8597               21.007       
       2662.3714             60.9517               20.873       
       2675.6832             61.0419               20.739       
       2689.0617             61.1305               20.606       
        2702.507             61.2175               20.474       
       2716.0195              61.303               20.342       
       2729.5996              61.387               20.212       
       2743.2476             61.4697               20.082       
       2756.9638              61.551               19.953       
       2770.7486              61.631               19.825       
       2784.6024             61.7099               19.697       
       2798.5254             61.7876               19.571       
        2812.518             61.8643               19.445       
       2826.5806              62.151               19.318       
       2840.7135             62.2255               19.191       
       2854.9171             62.2989               19.064       
       2869.1917             62.3712               18.939       
       2883.5376             62.4424               18.814       
       2897.9553             62.5128               18.689       
       2912.4451             62.7315               18.565       
       2927.0073             62.8009               18.44        
       2941.6424             62.8699               18.317       
       2956.3506             62.9388               18.194       
       2971.1323             63.0083               18.072       
        2985.988             63.0795               17.951       
       3000.9179              63.155               17.83        
       3015.9225             63.2207               17.691       
       3031.0021             63.2811               17.553       
       3046.1571             63.3383               17.416       
       3061.3879             63.3929               17.281       
       3076.6949             63.4452               17.146       
       3092.0783             63.4955               17.013       
       3107.5387             63.5439               16.881       
       3123.0764             63.5904               16.751       
       3138.6918             63.6352               16.621       
       3154.3853             63.6785               16.492       
       3170.1572             63.7201               16.364       
        3186.008             63.7602               16.237       
        3201.938             63.7989               16.111       
       3217.9477             63.8361               15.986       
       3234.0374              63.872               15.862       
       3250.2076             63.9066               15.739       
       3266.4587             63.9399               15.618       
        3282.791             63.9721               15.497       
       3299.2049             64.0031               15.378       
       3315.7009              64.033               15.259       
       3332.2794             64.0618               15.142       
       3348.9408             64.0896               15.025       
       3365.6856             64.1163               14.909       
        3382.514              64.142               14.794       
       3399.4265             64.1668               14.68        
       3416.4237             64.1907               14.567       
       3433.5058             64.2137               14.456       
       3450.6733             64.2358               14.345       
       3467.9267             64.2571               14.235       
       3485.2663             64.2776               14.127       
       3502.6927             64.2973               14.019       
       3520.2061             64.3163               13.912       
       3537.8072             64.3346               13.806       
       3555.4962             64.3522               13.702       
       3573.2737             64.3692               13.598       
        3591.14              64.3855               13.495       
       3609.0957             64.4013               13.393       
       3627.1412             64.5202               13.291       
       3645.2769             64.5356               13.187       
       3663.5033              64.55                13.084       
       3681.8208             64.5634               12.981       
       3700.2299             64.5759               12.88        
       3718.7311             64.5876               12.779       
       3737.3247             64.5985               12.68        
       3756.0114             64.6087               12.581       
       3774.7914             64.6181               12.483       
       3793.6654             64.6267               12.386       
       3812.6337             64.6348               12.29        
       3831.6969             64.6421               12.195       
       3850.8554             64.6489               12.101       
       3870.1096              64.655               12.007       
       3889.4602             64.6606               11.914       
       3908.9075             64.6656               11.823       
        3928.452             64.6701               11.732       
       3948.0943             64.6741               11.641       
       3967.8347             64.6776               11.552       
       3987.6739             64.6807               11.463       
        4055.024             65.1585               11.166       
        4334.821             65.0633               10.057       
        4633.924             64.9252               9.0625       
        4953.664              64.707               8.1745       
        5295.467             64.4383               7.3833       
        5660.855             64.1184               6.6775       
        6051.453             63.7384               6.0465       
        6469.004             63.2673               5.4548       
        6915.365             62.6355               4.9195       
        7392.525             61.7181               4.4427       
        7902.609             60.0572               4.0175       
        8190.742             57.8968               3.8007       
        8316.11              54.9282               3.7129       
        8349.542             51.4509               3.6901       
        8399.689             54.9359               10.444       
        8447.89              56.6313               10.315       
        8525.058             57.9659               10.115       
        9030.794             59.8477               9.0727       
        9079.014             59.7452               8.9917       
        9217.979             58.6124               8.7652       
        9255.036              56.949               8.7063       
        9310.622             58.8004               12.022       
        9449.586             60.5211               11.691       
        9556.274             61.0405               11.445       
        9653.919             61.1845               11.224       
        9702.543             61.0288               11.116       
        9741.549             60.3128               11.033       
        9800.056             61.3998               12.628       
        9946.326             62.6541               12.323       
        10320.04             64.1771               11.592       
        11032.12              65.693               10.376       
        11793.34             66.6121               9.3223       
        12607.08             67.2371               8.3663       
        13476.97             67.6565               7.4967       
        14406.88             67.9349               6.7173       
        15400.95             68.1159               6.0205       
        16463.62             68.2286               5.3984       
        17599.61              68.355               4.8304       
        18813.98             68.4065               4.3214       
        20112.15             68.4211               3.8614       
        21499.88             68.3798               3.449        
        22983.38             68.3214               3.0834       
        24569.23              68.253               2.759        
        26264.5              68.1838               2.4708       
        28076.76             68.1129               2.1971       
        30014.05              68.017               1.9502       
        32085.02             67.9127               1.7322       
        34298.89             67.8019                1.54        
        36665.51             67.6845               1.3696       
        39195.43              67.557               1.2165       
        41899.92             67.4143               1.0801       
        44791.01             67.2454              0.95556       
        47881.59             67.0286              0.84529       
        51185.42             66.7132              0.74787       
        54717.21             66.0951              0.66218       
        56335.79             65.4055              0.62805       
        57198.07             64.2643               0.611        
        57428.01             62.8976              0.60658       
        57772.93              64.279               3.2906       
        58492.7              65.4056               3.2283       
        58635.21             65.5268               3.2162       
        62528.7              66.9049               2.9062       
        66843.18             67.4553               2.6074       
        71455.36             67.7716               2.3374       
        76385.78             67.9759               2.095        
        81656.4              68.1195               1.8742       
        87290.69              68.212               1.6714       
        93313.74             68.2714               1.4907       
        99752.39             68.3086               1.3298       
        106635.3             68.3301               1.1863       
        113993.1             68.3409               1.0585       
        121858.7             68.3712              0.94103       
        130266.9             68.3646              0.83621       
        139255.3             68.3529              0.74314       
        148864.0              68.338              0.66049       
        159135.6              68.321              0.58709       
        170115.9             68.3027              0.52189       
        181853.9             68.2839              0.46397       
        194401.8              68.265              0.41252       
        207815.6             68.2463               0.3668       
        222154.8             68.2279              0.32617       
        237483.5             68.2101              0.29007       
        253869.9             68.1928              0.25839       
        271386.9             68.1769              0.23113       
        290112.6             68.1622              0.20676       
        310130.4             68.1487              0.18498       
        331529.4             68.1363               0.1655       
        354404.9             68.1247              0.14808       
        378858.8             68.1141               0.1325       
        405000.1             68.1042              0.11857       
        432945.1             68.0951              0.10611       
