# Eu
# Form Factors from Chantler Tables
# DOI: https://dx.doi.org/10.18434/T4HS32
# automatically retrived 2019-02-27 using URL https://physics.nist.gov/cgi-bin/ffast/ffast.pl
#
# Z = 63
# f_rel = -0.95641 e/atom  (Relativistic correction estimate)
# f_NT = -0.014328 e/atom (Nuclear Thomson correction)


#        E (eV)            f1 (e/atom)          f2 (e/atom)     
         10.69               13.9833              0.25065       
        11.42761             13.8468              0.28095       
        12.21612             13.6829              0.31548       
        13.05903             13.4837              0.35479       
        13.9601              13.2373               0.3995       
        14.92335             12.9256              0.45032       
        15.95306             12.5184              0.50798       
        17.05382             11.9616               0.5733       
        18.23053             11.1444              0.64715       
        19.48844             9.78838              0.73045       
        20.83314             6.82187              0.82418       
         21.56               2.42628              0.87675       
         21.89               -4.57615             0.90104       
         21.978              -13.2262             0.90756       
         22.11               -3.85948              18.081       
        22.27063              1.4657               17.741       
         22.44                4.4272               17.394       
        23.8073              13.2311               14.94        
        25.45001              16.956               12.596       
        27.20606             18.8177               10.552       
        29.08327             19.7321               8.8615       
        31.09002             20.1046               7.5261       
         31.164              20.1107               7.4848       
         31.641              20.1363                7.23        
        31.7682              20.1315               7.1655       
         31.959              20.1522               7.0947       
         32.436              20.1771               6.8729       
        33.23523             20.1866               6.5399       
        35.52846             20.1102                5.81        
        37.97993             19.9568               5.3111       
        40.60054             19.7831               5.0003       
        43.40198             19.6243               4.8414       
        46.39671             19.5039               4.8054       
        49.59809             19.4397               4.8696       
        53.02035             19.4498               5.0163       
        56.67876             19.5454               5.1276       
        60.58959             19.6637               5.1817       
        64.77028             19.7952               5.2494       
        69.23942             19.9539               5.3225       
        74.01695             20.1062               5.3942       
        79.12411             20.2598               5.459        
        84.58368             20.4046               5.5126       
        90.41995              20.526               5.5518       
        96.65893             20.6028               5.5743       
         100.0               23.5129               5.5787       
         100.5               23.5122               5.579        
        101.0025             23.5108               5.5791       
       101.50751             23.5088               5.5791       
       102.01505              23.506               5.579        
       102.52513             23.5024               5.5788       
       103.03775             23.4981               5.5785       
       103.55294             23.4929               5.578        
        104.0707             23.4868               5.5775       
       104.59106             23.4797               5.5769       
       105.11401             23.4717               5.5761       
       105.63958             23.4626               5.5752       
       106.16778             23.4524               5.5742       
       106.69862              23.441               5.5731       
       107.23211             23.4284               5.5719       
       107.76827             23.4145               5.5706       
       108.30712             23.3992               5.5691       
       108.84865             23.3824               5.5676       
       109.39289              23.364               5.5659       
       109.93986             23.3439               5.5641       
       110.48956             23.3221               5.5622       
       111.04201             23.2983               5.5602       
       111.59722             23.2726               5.5581       
        112.1552             23.2446               5.5558       
       112.71598             23.2143               5.5535       
       113.27956             23.1814               5.551        
       113.84596             23.1458               5.5484       
       114.41519             23.1073               5.5457       
       114.98726             23.0656               5.5429       
        115.5622             23.0205                5.54        
       116.14001             22.9716               5.5369       
       116.72071             22.9187               5.5337       
       117.30431             22.8613               5.5305       
       117.89083             22.7989               5.5271       
       118.48029             22.7312               5.5236       
       119.07269             22.6575               5.5199       
       119.66805             22.5772               5.5162       
       120.26639             22.4895               5.5123       
       120.86772             22.3935               5.5084       
       121.47206             22.2882               5.5043       
       122.07942             22.1724               5.5001       
       122.68982             22.0445               5.4958       
       123.30327             21.9029               5.4914       
       123.91979             21.7452               5.4868       
       124.53939             21.5689               5.4822       
       125.16208             21.3706               5.4774       
       125.78789             21.1459               5.4725       
       126.41683             20.8893               5.4675       
       127.04892             20.5935               5.4624       
       127.68416             20.2483               5.4572       
       128.32258             19.8395               5.4519       
       128.96419             19.3466               5.4465       
       129.60902             18.7376               5.4409       
       130.25706             17.9602               5.4353       
       130.90835             16.9196               5.4295       
       131.56289             15.4187               5.4236       
        132.2207             12.9303               5.4176       
       132.88181             6.86825               5.4115       
       133.17243             -7.84966              5.4088       
       133.22758             -7.66782              25.088       
       133.54621             8.89574               24.497       
       134.21395             16.4402               23.32        
       134.88502             20.1017               22.214       
       135.55944             22.5011               21.176       
       136.23724             24.2431               20.201       
       136.91842             25.5737               19.285       
       137.60302             26.6201               18.425       
       138.29103             27.4577               17.617       
       138.98249             28.1354               16.858       
        139.6774             28.6869               16.146       
       140.37579             29.1369               15.476       
       141.07766             29.5036               14.847       
       141.78305             29.8012               14.256       
       142.49197             30.0407                13.7        
       143.20443             30.2312               13.178       
       143.92045             30.3796               12.688       
       144.64005             30.4919               12.227       
       145.36325             30.5726               11.793       
       146.09007             30.6253               11.386       
       146.82052             30.6528               11.003       
       147.55462              30.658               10.65        
       148.29239             30.6466               10.325       
       149.03386             30.6229               10.027       
       149.77903             30.5901               9.7515       
       150.52792             30.5503               9.4978       
       151.28056             30.5054               9.2634       
       152.03696             30.4567               9.0465       
       152.79715             30.4054               8.8455       
       153.56113             30.3522               8.659        
       154.32894              30.298               8.4858       
       155.10058             30.2431               8.3245       
       155.87609             30.1882               8.1743       
       156.65547             30.1335               8.0342       
       157.43875             30.0792               7.9033       
       158.22594             30.0257               7.7808       
       159.01707             29.9731               7.6661       
       159.81215             29.9215               7.5585       
       160.61121             29.8709               7.4575       
       161.41427             29.8216               7.3626       
       162.22134             29.7734               7.2732       
       163.03245             29.7265               7.189        
       163.84761             29.6809               7.1095       
       164.66685             29.6365               7.0345       
       165.49018             29.5934               6.9636       
       166.31763             29.5516               6.8964       
       167.14922             29.5109               6.8328       
       167.98497             29.4715               6.7724       
       168.82489             29.4332               6.7151       
       169.66902              29.396               6.6606       
       170.51736              29.36                6.6087       
       171.36995              29.325               6.5594       
        172.2268             29.2911               6.5123       
       173.08793             29.2582               6.4674       
       173.95337             29.2262               6.4245       
       174.82314             29.1951               6.3835       
       175.69726             29.1649               6.3443       
       176.57574             29.1355               6.3068       
       177.45862             29.1069               6.2709       
       178.34591             29.0792               6.2364       
       179.23764             29.0521               6.2033       
       180.13383             29.0257               6.1716       
        181.0345               29.0                6.1411       
       181.93967             28.9749               6.1118       
       182.84937             28.9504               6.0836       
       183.76362             28.9265               6.0564       
       184.68244             28.9031               6.0303       
       185.60585             28.8802               6.0051       
       186.53388             28.8578               5.9808       
       187.46655             28.8358               5.9574       
       188.40388             28.8142               5.9349       
        189.3459              28.793               5.9131       
       190.29263             28.7722               5.8921       
       191.24409             28.7517               5.8718       
       192.20031             28.7315               5.8522       
       193.16131             28.7116               5.8332       
       194.12712             28.6919               5.8149       
       195.09776             28.6725               5.7972       
       196.07325             28.6533               5.7801       
       197.05361             28.6343               5.7636       
       198.03888             28.6155               5.7477       
       199.02907             28.5968               5.7322       
       200.02422             28.5782               5.7173       
       201.02434             28.5598               5.7029       
       202.02946             28.5414               5.689        
       203.03961             28.5231               5.6756       
       204.05481             28.5048               5.6626       
       205.07508             28.4866               5.6501       
       206.10046             28.4684               5.638        
       207.13096             28.4501               5.6264       
       208.16661             28.4318               5.6152       
       209.20745             28.4135               5.6044       
       210.25348             28.3951               5.594        
       211.30475             28.3766               5.584        
       212.36128              28.358               5.5744       
       213.42308             28.3392               5.5651       
        214.4902             28.3203               5.5563       
       215.56265             28.3011               5.5478       
       216.64046             28.2818               5.5397       
       217.72366             28.2622               5.532        
       218.81228             28.2424               5.5246       
       219.90634             28.2222               5.5176       
       221.00588             28.2018               5.511        
        222.1109              28.181               5.5047       
       223.22146             28.1597               5.4987       
       224.33757             28.1381               5.4931       
       225.45925              28.116               5.4879       
       226.58655             28.0934               5.483        
       227.71948             28.0702               5.4784       
       228.85808             28.0464               5.4741       
       230.00237             28.0219               5.4703       
       231.15238             27.9966               5.4667       
       232.30814             27.9706               5.4635       
       233.46969             27.9436               5.4606       
       234.63703             27.9155               5.458        
       235.81022             27.8864               5.4558       
       236.98927              27.856               5.4539       
       238.17422             27.8241               5.4523       
       239.36509             27.7905               5.4511       
       240.56191             27.7551               5.4502       
       241.76472             27.7175               5.4497       
       242.97355             27.6774               5.4494       
       244.18841             27.6342               5.4495       
       245.40936             27.5873               5.4499       
        246.6364             27.5359               5.4507       
       247.86959             27.4788               5.4518       
       249.10893             27.4142               5.4532       
       250.35448             27.3394               5.4549       
       251.60625             27.2499               5.457        
       252.86428              27.137               5.4594       
        254.1286             26.9814               5.4621       
       255.39925             26.7189               5.4652       
       256.41678             26.0606               5.4679       
       256.67624             25.7561               6.5471       
        256.7832             26.0554               6.5477       
       257.95962             26.7284               6.5549       
       259.24942             26.9422               6.5631       
       260.54567             27.0641               6.5716       
        261.8484             27.1475               6.5805       
       263.15764             27.2093               6.5897       
       264.47343             27.2573               6.5992       
       265.79579             27.2956               6.6091       
       267.12477             27.3266               6.6193       
        268.4604             27.3518               6.6299       
        269.8027             27.3722               6.6408       
       271.15171             27.3884               6.652        
       272.50747             27.4006               6.6636       
       273.87001             27.4091               6.6755       
       275.23936             27.4137               6.6877       
       276.61556             27.4139               6.7003       
       277.99863             27.4088               6.7132       
       279.38863             27.3963               6.7264       
       280.78557             27.3718               6.7399       
        282.1895             27.3221               6.7538       
       283.60044             27.1502               6.768        
       283.66578             27.1247               6.7686       
       284.13421             27.1284               7.1061       
       285.01845             27.3011               7.1162       
       286.44354             27.3998               7.1326       
       287.87576             27.4586               7.1492       
       289.31514             27.5026               7.1662       
       290.76171             27.5387               7.1834       
       292.21552             27.5699               7.2009       
        293.6766             27.5977               7.2187       
       295.14498             27.6229               7.2368       
       296.62071             27.6463               7.2551       
       298.10381             27.6681               7.2737       
       299.59433             27.6886               7.2925       
        301.0923             27.7082               7.3116       
       302.59776             27.7269               7.3309       
       304.11075             27.7448               7.3505       
        305.6313             27.7622               7.3703       
       307.15946             27.7789               7.3903       
       308.69526             27.7952               7.4106       
       310.23873             27.8111               7.4311       
       311.78993             27.8265               7.4518       
       313.34888             27.8416               7.4728       
       314.91562             27.8564               7.4939       
        316.4902             27.8709               7.5152       
       318.07265             27.8851               7.5367       
       319.66301              27.899               7.5584       
       321.26133             27.9127               7.5803       
       322.86764              27.926               7.6024       
       324.48197             27.9391               7.6246       
       326.10438             27.9519               7.647        
       327.73491             27.9643               7.6695       
       329.37358             27.9764               7.6922       
       331.02045             27.9881               7.715        
       332.67555             27.9994               7.7379       
       334.33893             28.0101               7.7609       
       336.01062             28.0203               7.7841       
       337.69068             28.0298               7.8074       
       339.37913             28.0384               7.8307       
       341.07602             28.0461               7.8542       
        342.7814             28.0526               7.8777       
       344.49531             28.0576               7.9014       
       346.21779             28.0607               7.925        
       347.94888             28.0613               7.9488       
       349.68862             28.0586               7.9726       
       351.43706             28.0513               7.9964       
       353.19425             28.0373               8.0202       
       354.96022             28.0123               8.0441       
       356.73502             27.9669               8.068        
        358.5187             27.8699               8.0919       
       359.78936             27.6514               8.1089       
       360.31129             27.4403               8.6402       
       360.61062             27.6621               8.6444       
       362.11285             27.9389               8.6652       
       363.92341             28.0747               8.6902       
       365.74303             28.1662               8.7151       
       367.57174             28.2393               8.7401       
        369.4096             28.3024               8.765        
       371.25665             28.3592               8.7898       
       373.11293             28.4118               8.8146       
        374.9785             28.4614               8.8393       
       376.85339             28.5087               8.8639       
       378.73766             28.5544               8.8884       
       380.63135             28.5987               8.9128       
        382.5345              28.642               8.9371       
       384.44718             28.6845               8.9614       
       386.36941             28.7263               8.9854       
       388.30126             28.7677               9.0094       
       390.24276             28.8086               9.0332       
       392.19398             28.8493               9.0569       
       394.15495             28.8897               9.0804       
       396.12572             28.9299               9.1037       
       398.10635              28.97                9.1269       
       400.09688             28.9879               9.1498       
       402.09737             29.0279               9.1725       
       404.10785             29.0678               9.195        
       406.12839             29.1076               9.2173       
       408.15904             29.1475               9.2394       
       410.19983             29.1874               9.2612       
       412.25083             29.2274               9.2827       
       414.31208             29.2674               9.3039       
       416.38364             29.3075               9.3248       
       418.46556             29.3476               9.3455       
       420.55789             29.3878               9.3659       
       422.66068             29.4281               9.3859       
       424.77398             29.4684               9.4057       
       426.89785             29.5088               9.4251       
       429.03234             29.5493               9.4443       
        431.1775             29.5899               9.4631       
       433.33339             29.6306               9.4816       
       435.50006             29.6714               9.4998       
       437.67756             29.7122               9.5176       
       439.86595             29.7531               9.5351       
       442.06528             29.7941               9.5522       
        444.2756             29.8352               9.569        
       446.49698             29.8763               9.5854       
       448.72947             29.9175               9.6015       
       450.97311             29.9588               9.6172       
       453.22798             30.0001               9.6325       
       455.49412             30.0414               9.6474       
       457.77159             30.0828               9.6619       
       460.06045             30.1243               9.676        
       462.36075             30.1658               9.6898       
       464.67255             30.2073               9.7031       
       466.99592             30.2488               9.716        
        469.3309             30.2903               9.7285       
       471.67755             30.3318               9.7406       
       474.03594             30.3733               9.7523       
       476.40612             30.4149               9.7636       
       478.78815             30.4564               9.7744       
       481.18209             30.4978               9.7849       
        483.588              30.5393               9.7949       
       486.00594             30.5806               9.8044       
       488.43597              30.622               9.8135       
       490.87815             30.6633               9.8222       
       493.33254             30.7045               9.8305       
        495.7992             30.7456               9.8383       
        498.2782             30.7866               9.8457       
       500.76959             30.8276               9.8526       
       503.27344             30.8684               9.8591       
        505.7898             30.9092               9.8651       
       508.31875             30.9498               9.8707       
       510.86035             30.9902               9.8758       
       513.41465             31.0306               9.8805       
       515.98172             31.0708               9.8847       
       518.56163             31.1108               9.8885       
       521.15444             31.1507               9.8919       
       523.76021             31.1904               9.8948       
       526.37901             31.2299               9.8972       
       529.01091             31.2692               9.8992       
       531.65596             31.3083               9.9007       
       534.31424             31.3472               9.9018       
       536.98581             31.3859               9.9023       
       539.67074             31.4243               9.9023       
        542.3691             31.4625               9.9018       
       545.08094             31.5004               9.9007       
       547.80635              31.538               9.8991       
       550.54538             31.5753               9.897        
        553.2981             31.6122               9.8944       
        556.0646             31.6489               9.8912       
       558.84492             31.6851               9.8876       
       561.63914              31.721               9.8834       
       564.44734             31.7565               9.8787       
       567.26958             31.7915               9.8736       
       570.10592             31.8262               9.8679       
       572.95645             31.8604               9.8618       
       575.82123             31.8941               9.8552       
       578.70034             31.9274               9.8481       
       581.59384             31.9602               9.8405       
       584.50181             31.9926               9.8325       
       587.42432             32.0244               9.8241       
       590.36144             32.0557               9.8151       
       593.31325             32.0864               9.8058       
       596.27982             32.1166               9.796        
       599.26122             32.1462               9.7857       
       602.25752             32.1753               9.775        
       605.26881             32.2038               9.7639       
       608.29515             32.2316               9.7523       
       611.33663             32.2588               9.7404       
       614.39331             32.2855               9.728        
       617.46528             32.3114               9.7153       
        620.5526             32.3367               9.7021       
       623.65537             32.3613               9.6886       
       626.77364             32.3853               9.6747       
       629.90751             32.4085               9.6605       
       633.05705             32.4311               9.6459       
       636.22234             32.4529               9.6309       
       639.40345              32.474               9.6156       
       642.60046             32.4943               9.5999       
       645.81347             32.5138               9.5839       
       649.04253             32.5326               9.5676       
       652.28775             32.5506               9.551        
       655.54919             32.5678               9.534        
       658.82693             32.5841               9.5168       
       662.12107             32.5997               9.4992       
       665.43167             32.6143               9.4813       
       668.75883             32.6281               9.4632       
       672.10262             32.6411               9.4448       
       675.46314             32.6531               9.4261       
       678.84045             32.6643               9.4071       
       682.23466             32.6745               9.3879       
       685.64583             32.6837               9.3684       
       689.07406              32.692               9.3486       
       692.51943             32.6994               9.3286       
       695.98202             32.7057               9.3084       
       699.46194             32.7111               9.2879       
       702.95924             32.7154               9.2673       
       706.47404             32.7187               9.2464       
       710.00641             32.7209               9.2252       
       713.55644             32.7221               9.2039       
       717.12423             32.7221               9.1824       
       720.70985             32.7211               9.1607       
        724.3134             32.7189               9.1388       
       727.93496             32.7155               9.1167       
       731.57464              32.711               9.0944       
       735.23251             32.7052               9.0719       
       738.90867             32.6983               9.0493       
       742.60322             32.6901               9.0265       
       746.31623             32.6806               9.0036       
       750.04781             32.6698               8.9805       
       753.79805             32.6577               8.9572       
       757.56704             32.6442               8.9338       
       761.35488             32.6294               8.9103       
       765.16165             32.6132               8.8867       
       768.98746             32.5955               8.8629       
        772.8324             32.5805               8.839        
       776.69656             32.5599               8.815        
       780.58004             32.5378               8.7908       
       784.48294             32.5141               8.7666       
       788.40536             32.4887               8.7422       
       792.34738             32.4618               8.7178       
       796.30912             32.4331               8.6932       
       800.29067             32.4028               8.6686       
       804.29212             32.3706               8.6439       
       808.31358             32.3367               8.6191       
       812.35515             32.3009               8.5942       
       816.41693             32.2632               8.5692       
       820.49901             32.2235               8.5442       
        824.6015             32.1818               8.5191       
       828.72451              32.138               8.494        
       832.86813             32.0922               8.4687       
       837.03248             32.0441               8.4435       
       841.21764             31.9938               8.4182       
       845.42373             31.9411               8.3928       
       849.65084             31.8861               8.3674       
        853.8991             31.8295               8.3419       
       858.16859             31.7695               8.3164       
       862.45944             31.7068               8.2909       
       866.77173             31.6414               8.2653       
       871.10559             31.5732               8.2398       
       875.46112             31.5021               8.2141       
       879.83843              31.428               8.1885       
       884.23762             31.3507               8.1629       
       888.65881             31.2703               8.1372       
        893.1021             31.1864               8.1115       
       897.56761             31.0991               8.0858       
       902.05545             31.0082               8.0601       
       906.56573             30.9135               8.0344       
       911.09856              30.815               8.0087       
       915.65405             30.7123               7.983        
       920.23232             30.6054               7.9573       
       924.83348             30.4941               7.9316       
       929.45765             30.3783               7.9059       
       934.10494             30.2576               7.8802       
       938.77546              30.132               7.8545       
       943.46934             30.0011               7.8289       
       948.18668             29.8649               7.8032       
       952.92762             29.7231               7.7776       
       957.69226             29.5754               7.752        
       962.48072             29.4218               7.7264       
       967.29312              29.262               7.7009       
       972.12959             29.0959               7.6753       
       976.99023             28.9235               7.6498       
       981.87519              28.745               7.6243       
       986.78456             28.5607               7.5989       
       991.71848             28.3715               7.5735       
       996.67708              28.179               7.5481       
       1001.6605             27.9686               7.518        
       1006.6688             27.7137               7.4786       
       1011.7021             27.4438               7.4394       
       1016.7606             27.1576               7.4004       
       1021.8444             26.8535               7.3617       
       1026.9536             26.5299               7.323        
       1032.0884             26.1848               7.2827       
       1037.2489             25.8156               7.2427       
       1042.4351             25.4197               7.2029       
       1047.6473              24.994               7.1633       
       1052.8855             24.5345               7.1241       
       1058.1499             24.0367               7.085        
       1063.4407             23.4948               7.0462       
       1068.7579             22.9019               7.0077       
       1074.1017              22.249               6.9694       
       1079.4722             21.5245               6.9313       
       1084.8695             20.7134               6.8935       
       1090.2939             19.7944               6.8559       
       1095.7454             18.7378               6.8185       
       1101.2241             17.4994               6.7814       
       1106.7302             16.0081               6.7445       
       1112.2639             14.1386               6.7078       
       1117.8252             11.6332               6.6714       
       1123.4143             7.79666               6.6352       
       1129.0314             -1.32844              6.5992       
       1130.7711             -18.3139              6.5881       
       1131.0289             -18.6591              26.407       
       1134.6765             2.34454               26.277       
       1140.3499             7.40466               26.075       
       1146.0517             9.28125               25.875       
       1151.7819             9.48813               25.677       
       1157.5408             6.90042               25.48        
       1160.3841             -3.30656              25.383       
       1160.8158             -3.40633              38.394       
       1163.3285             7.75267               38.263       
       1169.1452              13.768               37.964       
       1174.9909             17.0308               37.667       
       1180.8659             19.4196               37.373       
       1186.7702             21.3458               37.08        
        1192.704             22.9755               36.791       
       1198.6676              24.395               36.503       
       1204.6609             25.6554               36.218       
       1210.6842             26.7903               35.935       
       1216.7376              27.823               35.655       
       1222.8213             28.7702               35.376       
       1228.9354             29.6448                35.1        
       1235.0801             30.4566               34.827       
       1241.2555             31.2134               34.555       
       1247.4618             31.9215               34.286       
       1253.6991             32.5862               34.018       
       1259.9676             33.2116               33.753       
       1266.2674             33.8014               33.49        
       1272.5988             34.3586               33.229       
       1278.9618             34.8859               32.97        
       1285.3566             35.3854               32.714       
       1291.7833             35.8591               32.459       
       1298.2423             36.3087               32.207       
       1304.7335             36.7356               31.956       
       1311.2571             37.1411               31.707       
       1317.8134             37.5262               31.461       
       1324.4025             37.8918               31.216       
       1331.0245             38.2389               30.973       
       1337.6796             38.5679               30.732       
        1344.368             38.8795               30.492       
       1351.0899              39.174               30.255       
       1357.8453             39.4517               30.02        
       1364.6345             39.7127               29.786       
       1371.4577             39.9571               29.554       
        1378.315             40.1847               29.324       
       1385.2066             40.3952               29.097       
       1392.1326             40.5878               28.87        
       1399.0933             40.7619               28.646       
       1406.0887             40.9159               28.424       
       1413.1192             41.0482               28.203       
       1420.1848              41.156               27.984       
       1427.2857             41.2357               27.767       
       1434.4221             41.2815               27.551       
       1441.5942             41.2848               27.338       
       1448.8022             41.2313               27.125       
       1456.0462             41.0948               26.915       
       1463.3265             40.8209               26.706       
       1470.6431              40.26                26.499       
       1477.9963             38.5729               26.295       
       1479.4437             37.4597               26.255       
       1481.7563             37.4574               30.678       
       1485.3863             39.6033               30.555       
       1492.8132             41.1518               30.306       
       1500.2773             42.0233               30.059       
       1507.7787             42.6591               29.814       
       1515.3176             43.1692               29.571       
       1522.8942             43.5979               29.331       
       1530.5086             43.9672               29.093       
       1538.1612             44.2891               28.856       
        1545.852             44.5699               28.622       
       1553.5812              44.812               28.39        
       1561.3491              45.021               28.179       
       1569.1559             45.2033               27.971       
       1577.0017             45.3541               27.766       
       1584.8867             45.4652               27.564       
       1592.8111             45.5195               27.364       
       1600.7752             45.4731               27.167       
        1608.779             45.1426               26.972       
       1612.5491             44.4561               26.881       
       1615.2508             44.5036               28.687       
       1616.8229             45.0086               28.646       
        1624.907             46.0143               28.434       
       1633.0316             46.5443               28.225       
       1641.1967             46.9454               28.018       
       1649.4027             47.2812               27.814       
       1657.6497             47.5756               27.612       
        1665.938             47.8398               27.412       
       1674.2677             48.0804               27.215       
        1682.639             48.3007               27.019       
       1691.0522             48.5027               26.826       
       1699.5075             48.6883               26.642       
        1708.005             48.8632               26.464       
        1716.545             49.0275               26.288       
       1725.1278             49.1808               26.114       
       1733.7534             49.3227               25.942       
       1742.4222             49.4521               25.773       
       1751.1343             49.5674               25.605       
       1759.8899             49.6653               25.44        
       1768.6894              49.74                25.277       
       1777.5328             49.7791               25.116       
       1786.4205             49.7502               24.956       
       1795.3526             49.5046               24.799       
         1797.3              49.3344               24.765       
         1802.7              49.4181               25.851       
       1804.3294             49.6237               25.822       
        1813.351             50.1984               25.664       
       1822.4178             50.5401               25.507       
       1831.5299             50.8117               25.351       
       1840.6875             51.0477               25.197       
       1849.8909             51.2615               25.045       
       1859.1404             51.4599               24.894       
       1868.4361             51.6467               24.744       
       1877.7783             51.8243               24.596       
       1887.1672             51.9943               24.449       
        1896.603              52.158               24.305       
        1906.086             52.3172               24.162       
       1915.6165             52.4725               24.02        
       1925.1945             52.6247               23.88        
       1934.8205             52.7725               23.733       
       1944.4946             52.9156               23.587       
       1954.2171             53.0545               23.442       
       1963.9882             53.1896               23.299       
       1973.8081             53.3213               23.156       
       1983.6772             53.4498               23.015       
       1993.5955             53.5754               22.875       
       2003.5635             53.6983               22.735       
       2013.5813             53.8186               22.597       
       2023.6492             53.9365               22.459       
       2033.7675             54.0521               22.323       
       2043.9363             54.1657               22.187       
        2054.156             54.2773               22.052       
       2064.4268              54.387               21.918       
       2074.7489             54.4951               21.785       
       2085.1227             54.6017               21.653       
       2095.5483              54.707               21.521       
        2106.026             54.8106               21.388       
       2116.5562             54.9118               21.254       
       2127.1389              55.011               21.122       
       2137.7746             55.1081               20.99        
       2148.4635             55.2033               20.858       
       2159.2058             55.2968               20.728       
       2170.0018             55.3885               20.598       
       2180.8519             55.4787               20.469       
       2191.7561             55.5672               20.341       
       2202.7149             55.6543               20.213       
       2213.7285              55.74                20.086       
       2224.7971             55.8243               19.96        
       2235.9211             55.9072               19.835       
       2247.1007              55.989               19.711       
       2258.3362             56.0695               19.587       
       2269.6279              56.369               19.46        
        2280.976              56.447               19.332       
       2292.3809             56.5233               19.205       
       2303.8428             56.5981               19.079       
        2315.362             56.6713               18.953       
       2326.9388             56.8928               18.827       
       2338.5735             56.9633                18.7        
       2350.2664             57.0319               18.573       
       2362.0177             57.0988               18.446       
       2373.8278             57.1639               18.32        
        2385.697             57.2274               18.196       
       2397.6254             57.2893               18.072       
       2409.6136             57.3497               17.948       
       2421.6616             57.4087               17.826       
       2433.7699             57.4662               17.705       
       2445.9388             57.5225               17.584       
       2458.1685             57.5774               17.464       
       2470.4593             57.6311               17.345       
       2482.8116             57.6835               17.227       
       2495.2257             57.7348               17.11        
       2507.7018             57.7851               16.992       
       2520.2403             57.8341               16.874       
       2532.8415              57.882               16.756       
       2545.5057             57.9287               16.639       
       2558.2333             57.9743               16.524       
       2571.0244             58.0188               16.409       
       2583.8796             58.0623               16.295       
        2596.799             58.1048               16.182       
       2609.7829             58.1463               16.069       
       2622.8319             58.1869               15.958       
        2635.946             58.2266               15.847       
       2649.1257             58.2654               15.737       
       2662.3714             58.3033               15.629       
       2675.6832             58.3405               15.521       
       2689.0617             58.3768               15.413       
        2702.507             58.4125               15.307       
       2716.0195             58.4474               15.202       
       2729.5996             58.4816               15.097       
       2743.2476             58.5153               14.993       
       2756.9638             58.5483               14.89        
       2770.7486             58.5807               14.788       
       2784.6024             58.6127               14.687       
       2798.5254             58.6441               14.587       
        2812.518             58.6752               14.487       
       2826.5806             58.7058               14.388       
       2840.7135             58.7361               14.29        
       2854.9171             58.7662               14.193       
       2869.1917              58.796               14.097       
       2883.5376             58.8257               14.001       
       2897.9553             58.8553               13.906       
       2912.4451              58.885               13.812       
       2927.0073             58.9148               13.719       
       2941.6424              58.945               13.626       
       2956.3506             58.9756               13.535       
       2971.1323             59.1179               13.443       
        2985.988             59.1515               13.351       
       3000.9179              59.188               13.258       
       3015.9225             59.2104               13.153       
       3031.0021             59.2313               13.048       
       3046.1571             59.2511               12.944       
       3061.3879             59.2696               12.841       
       3076.6949              59.287               12.739       
       3092.0783             59.3033               12.638       
       3107.5387             59.3186               12.538       
       3123.0764             59.3329               12.439       
       3138.6918             59.3464               12.341       
       3154.3853             59.3589               12.243       
       3170.1572             59.3707               12.147       
        3186.008             59.3816               12.051       
        3201.938             59.3918               11.957       
       3217.9477             59.4012               11.863       
       3234.0374             59.4577               11.769       
       3250.2076             59.4661               11.675       
       3266.4587             59.4737               11.582       
        3282.791             59.4804               11.489       
       3299.2049             59.4863               11.398       
       3315.7009             59.4915               11.307       
       3332.2794             59.4959               11.217       
       3348.9408             59.4997               11.128       
       3365.6856             59.5027               11.04        
        3382.514             59.5051               10.952       
       3399.4265             59.5069               10.866       
       3416.4237             59.5081               10.78        
       3433.5058             59.5087               10.695       
       3450.6733             59.5087               10.61        
       3467.9267             59.5082               10.527       
       3485.2663             59.5071               10.444       
       3502.6927             59.5055               10.362       
       3520.2061             59.5034               10.28        
       3537.8072             59.5008                10.2        
       3555.4962             59.4978               10.12        
       3573.2737             59.4942               10.04        
        3591.14              59.4903               9.9618       
       3609.0957             59.5065               9.8836       
       3627.1412             59.5018               9.8057       
       3645.2769             59.4966               9.7285       
       3663.5033             59.4909               9.652        
       3681.8208             59.4847               9.5761       
       3700.2299             59.4781               9.501        
       3718.7311              59.471               9.4264       
       3737.3247             59.4634               9.3526       
       3756.0114             59.4555               9.2794       
       3774.7914             59.4471               9.2068       
       3793.6654             59.4383               9.1349       
       3812.6337             59.4291               9.0636       
       3831.6969             59.4195               8.9929       
       3850.8554             59.4095               8.9229       
       3870.1096             59.3991               8.8535       
       3889.4602             59.3884               8.7847       
       3908.9075             59.3773               8.7165       
        3928.452             59.3658               8.6488       
       3948.0943             59.3539               8.5818       
       3967.8347             59.3417               8.5154       
       3987.6739             59.3292               8.4495       
        4055.024             59.6358               8.2325       
        4334.821             59.3705               7.4286       
        4633.924             59.0558               6.7125       
        4953.664             58.6852               6.0676       
        5295.467             58.2226               5.4616       
        5660.855             57.6151               4.9205       
        6051.453             56.7667               4.4412       
        6469.004             55.3693               4.0134       
        6837.362             52.4608               3.6797       
        6915.365             50.6522               3.6152       
        6942.016             49.4006               3.5936       
        6969.923             45.8346               3.5713       
        7011.785             49.3893               10.485       
        7116.438             52.4556               10.149       
        7392.525             54.1115               9.3669       
        7464.758             54.0325               9.2026       
        7579.014             52.9494               8.958        
        7609.483             51.2685               8.8957       
        7655.185             53.1756               12.274       
        7769.442             54.9778               11.938       
        7890.96              55.6937               11.599       
        7902.609             55.7303               11.568       
        8011.74              55.6299               11.284       
        8043.948             54.8926               11.207       
        8092.26              55.9907               12.844       
        8213.04              57.2565               12.562       
        8447.89              58.5224               12.052       
        9030.794             60.3515               10.886       
        9653.919             61.4328               9.7453       
        10320.04             62.1312               8.722        
        11032.12              62.597               7.7991       
        11793.34             62.9021               6.9771       
        12607.08             63.1004               6.2471       
        13476.97             63.2258               5.5984       
        14406.88             63.3696               5.0106       
        15400.95             63.4331               4.4768       
        16463.62             63.4567               3.9915       
        17599.61             63.4161               3.5544       
        18813.98             63.3537               3.168        
        20112.15             63.2776               2.8261       
        21499.88             63.1925               2.5233       
        22983.38             63.1018               2.255        
        24569.23             63.0078               2.0169       
        26264.5              62.9135               1.8054       
        28076.76             62.8223               1.6051       
        30014.05             62.7126               1.4248       
        32085.02             62.5915               1.2627       
        34298.89             62.4558               1.1186       
        36665.51             62.2983               0.9879       
        39195.43             62.1028              0.87194       
        41899.92              61.837              0.76975       
        44791.01              61.399              0.68007       
        47548.62              60.328              0.60908       
        47881.59             59.9783              0.60131       
        48276.41             59.1554               0.5923       
        48470.48             57.7507              0.58795       
        48761.6              59.1703               3.347        
        49489.38             60.4533               3.271        
        51185.42             61.4212               3.1039       
        54717.21              62.222               2.7859       
        58492.7              62.6336               2.4966       
        62528.7              62.8888               2.236        
        66843.18             63.0578               1.9997       
        71455.36             63.1711               1.7878       
        76385.78             63.2479               1.5984       
        81656.4              63.3021               1.4271       
        87290.69             63.3337               1.2703       
        93313.74             63.3506               1.1309       
        99752.39             63.3867               1.0053       
        106635.3             63.3832              0.89153       
        113993.1             63.3731              0.79073       
        121858.7             63.3589              0.70139       
        130266.9              63.342               0.6222       
        139255.3             63.3234              0.55201       
        148864.0              63.304              0.48977       
        159135.6             63.2843              0.43458       
        170115.9             63.2647              0.38565       
        181853.9             63.2454              0.34225       
        194401.8             63.2268              0.30375       
        207815.6             63.2088              0.26961       
        222154.8             63.1916              0.24007       
        237483.5             63.1759              0.21392       
        253869.9             63.1612              0.19064       
        271386.9             63.1477               0.1699       
        290112.6             63.1351              0.15143       
        310130.4             63.1234              0.13497       
        331529.4             63.1127              0.12031       
        354404.9             63.1028              0.10724       
        378858.8             63.0936              0.095604      
        405000.1             63.0852              0.085233      
        432945.1             63.0775              0.07599       
