# Fr
# Form Factors from Chantler Tables
# DOI: https://dx.doi.org/10.18434/T4HS32
# automatically retrived 2019-02-27 using URL https://physics.nist.gov/cgi-bin/ffast/ffast.pl
#
# Z = 87
# f_rel = -2.2217 e/atom  (Relativistic correction estimate)
# f_NT = -0.01862 e/atom (Nuclear Thomson correction)


#        E (eV)            f1 (e/atom)          f2 (e/atom)     
        10.40001             -4.29397               0.0         
        10.5592              -10.4119               0.0         
        10.60165             -17.8248               0.0         
        10.66532             -9.97566              14.635       
         10.69               -8.10559              14.564       
        10.8245              -3.08761              14.189       
        11.42761             3.75079               12.671       
        12.21612             6.79698               11.021       
        13.05903             8.07632               9.5691       
        13.9601              8.09233               8.2905       
        14.86167             5.35923               7.2306       
        14.92335             4.76667               7.1649       
        15.08915             1.47371               6.9921       
        15.14981             -3.48118              6.9303       
        15.2408              2.02215               16.744       
        15.46827              6.9443               16.024       
        15.95306             10.5356               14.623       
        17.05382             13.5499               12.017       
        18.23053             14.7041               10.024       
        19.48844             15.1952               8.4856       
        20.83314              15.361               7.2605       
        22.27063             15.3364               6.2608       
        23.8073              15.1812               5.4288       
        25.45001              14.916               4.7256       
        27.20606             14.4964               4.1235       
        27.31051             14.4599               4.0915       
        27.72853             14.2366               3.9675       
         27.84               14.0384               3.9354       
        28.00721              14.198               4.2374       
        28.42523             14.2818               4.1033       
        29.08327             14.2378               3.9051       
        31.09002             13.8726               3.3834       
        33.23523             13.3372               2.9381       
        35.52846             12.6493               2.5561       
        37.97993             11.7859               2.2261       
        40.60054             10.6868               1.9401       
        43.40198             9.24172               1.692        
        46.39671             7.23788               1.4774       
        49.59809             4.16636               1.2924       
        53.02035             -1.94328              1.133        
        53.46183             -3.39592              1.1148       
        54.28013             -8.28821              1.0824       
        54.49834             -12.9003              1.074        
        54.82565             -9.56276              9.4014       
        55.64395             -7.57099              10.254       
        56.67876             -7.78448              11.446       
        58.34708             -10.2763              13.666       
        59.24014             -14.6377              15.021       
        59.47829             -19.664               15.404       
        59.83552             -14.9067              25.839       
        60.58959             -10.9069              27.721       
        60.72859             -10.4605              28.065       
        64.77028            -0.763173              37.01        
        69.23942              11.983               42.431       
        74.01695             24.9875               40.957       
        79.12411             34.4872               34.661       
        84.58368             39.5132               26.691       
        90.41995             40.9454               19.311       
        96.65893             40.1932               13.486       
        103.3284             38.4133               9.295        
        110.4581             36.3113               6.4375       
        118.0797             34.2174               4.5422       
        126.2272              32.171               3.2975       
        130.2983             31.0527               2.8656       
        132.2926             30.1419               2.6873       
        132.8244             29.3747               2.643        
        133.6222             29.9535               3.9126       
        134.9368             30.2267               3.7871       
        135.6165              30.252               3.7252       
        144.2475             29.6373               3.0822       
        154.2005             28.6015               2.5847       
        164.8404             27.3575               2.2433       
        165.6291             27.2376               2.2234       
        168.1643             26.6582               2.1635       
        168.8403             26.1545               2.1485       
        169.8543             26.5525               3.0117       
        172.3895              26.767               2.9216       
        176.2144             26.6924               2.7986       
        188.3732             26.0173               2.4902       
        201.3709             25.0915               2.2659       
        215.2655              23.942               2.1083       
        215.6348              23.907               2.105        
        218.9353             23.5511               2.0767       
        219.8155             23.3824               2.0697       
        221.1357             23.3614               2.2421       
        224.4362             23.1489                2.22        
        230.1188              22.661               2.1874       
        234.0857             22.2701               2.1682       
        237.6687             21.8519               2.1531       
        238.6241             21.6828               2.1494       
        240.0573             21.5829               2.2791       
        241.5586             21.4436               2.2876       
        243.6403             21.2188               2.3022       
        245.256              21.0204               2.3159       
        245.997               20.91                2.3229       
        246.2419             20.8613               2.3253       
        247.7208             20.7371               2.4424       
        251.4182             20.3427               2.5174       
        262.9708             18.8987               2.912        
        281.1158             16.3963               4.2112       
        300.5128             13.8493               6.6175       
        321.2482             11.8075               10.22        
        343.4143             10.8331               14.767       
        367.1099              11.271               19.728       
        392.4405             13.1412               24.493       
        419.5189             16.1759               28.553       
        448.4657             19.9611               31.609       
        479.4098             24.0317               33.572       
         500.0               27.9322               34.274       
         502.5               28.2216               34.332       
        505.0125             28.5084               34.385       
       507.53756             28.7939               34.433       
       510.07525             29.0749               34.475       
       512.62563             29.3526               34.513       
       515.18875             29.6269               34.546       
        517.7647             29.8974               34.574       
       520.35352             30.1639               34.598       
       522.95529             30.4261               34.617       
       525.57007             30.6836               34.631       
       528.19792             30.9361               34.641       
       530.83891             31.1833               34.647       
        533.4931             31.4245               34.648       
       536.16057             31.6594               34.645       
       538.84137             31.8872               34.638       
       541.53558             32.1073               34.627       
       544.24325             32.3188               34.612       
       546.96447             32.5205               34.593       
       549.69929             32.7112               34.57        
       552.44779              32.889               34.543       
       555.21003             33.0516               34.513       
       557.98608             33.1958               34.479       
       560.77601             33.3167               34.442       
       563.57989             33.4071               34.402       
       566.39779             33.4545               34.358       
       569.22978              33.435               34.311       
       572.07593             33.2919               34.26        
        574.9363             32.8112               34.207       
       576.62439              31.581               34.174       
       577.37565             31.6271               36.636       
       577.81099             32.2603               36.63        
       580.70004             33.6387               36.594       
       583.60354             34.2731               36.555       
       586.52156             34.7286               36.513       
       589.45417             35.0911               36.468       
       592.40144              35.385               36.422       
       595.36345             35.6106               36.372       
       598.34026             35.7396               36.321       
       601.33196              35.632               36.267       
       602.90602             35.0309               36.238       
       603.69393             35.1112               37.725       
       604.33862             35.6398               37.716       
       607.36032             36.5982               37.673       
       610.39712             37.1673               37.628       
        613.4491             37.6346               37.582       
       616.51635             38.0516               37.533       
       619.59893             38.4375               37.483       
       622.69693             38.8015               37.432       
       625.81041             39.1491               37.379       
       628.93946             39.4836               37.324       
       632.08416             39.8075               37.268       
       635.24458             40.1225               37.211       
        638.4208             40.4297               37.152       
       641.61291             40.7302               37.091       
       644.82097             41.0244               37.029       
       648.04508             41.3129               36.965       
        651.2853              41.596               36.899       
       654.54173             41.8742               36.831       
       657.81444             42.1478               36.762       
       661.10351             42.4181               36.692       
       664.40903             42.6831               36.62        
       667.73107             42.9442               36.546       
       671.06973             43.2015               36.471       
       674.42508              43.455               36.394       
        677.7972             43.7049               36.316       
       681.18619             43.9511               36.236       
       684.59212             44.1937               36.155       
       688.01508             44.4327               36.072       
       691.45515             44.6683               35.988       
       694.91243             44.9003               35.902       
       698.38699             45.1288               35.815       
       701.87893             45.3539               35.727       
       705.38832             45.5756               35.638       
       708.91526             45.7937               35.547       
       712.45984             46.0084               35.456       
       716.02214             46.2196               35.363       
       719.60225             46.4513               35.269       
       723.20026             46.6555               35.173       
       726.81626             46.8559               35.077       
       730.45034             47.0524               34.98        
        734.1026              47.245               34.882       
       737.77311             47.4335               34.782       
       741.46197             47.6486               34.682       
       745.16928             47.8287               34.582       
       748.89513             48.0042               34.48        
       752.63961             48.1747               34.378       
        756.4028             48.3399               34.275       
       760.18482             48.4994               34.171       
       763.98574             48.6526               34.066       
       767.80567             48.7988               33.961       
        771.6447             48.9371               33.856       
       775.50292             49.0662               33.75        
       779.38044             49.1845               33.643       
       783.27734             49.2895               33.536       
       787.19373             49.3776               33.428       
       791.12969             49.4432               33.32        
       795.08534             49.4765               33.212       
       799.06077             49.4582               33.103       
       803.05607              49.342               32.994       
       807.07135             48.9529               32.885       
        808.9146             48.3781               32.835       
       811.10671             48.4888               34.857       
       815.16224             49.6878               34.748       
       819.23806             50.2509               34.64        
       823.33425             50.6701               34.531       
       827.45092             51.0229               34.422       
       831.58817             51.3368               34.313       
       835.74611             51.6249               34.204       
       839.92484             51.8945               34.095       
       844.12447             52.1499               33.985       
       848.34509              52.394               33.876       
       852.58682             52.6289               33.767       
       856.84975             52.8561               33.658       
        861.134              53.0767               33.548       
       865.43967             53.2915               33.439       
       869.76687             53.5012               33.33        
        874.1157             53.7063               33.221       
       878.48628             53.9072               33.113       
       882.87871             54.1045               33.004       
        887.2931             54.2983               32.896       
       891.72957              54.489               32.787       
       896.18822             54.6767               32.679       
       900.66916             54.8618               32.572       
        905.1725             55.0442               32.464       
       909.69837             55.2242               32.357       
       914.24686             55.4019               32.249       
       918.81809             55.5774               32.142       
       923.41218             55.7507               32.036       
       928.02924             55.9219               31.929       
       932.66939              56.091               31.823       
       937.33274             56.2579               31.718       
        942.0194             56.4225               31.612       
        946.7295             56.5846               31.507       
       951.46315             56.7437               31.403       
       956.22046             56.8991               31.298       
       961.00156             57.0492               31.195       
       965.80657             57.1911               31.091       
        970.6356             57.3175               30.988       
       975.48878             57.4036               30.885       
       978.59862             57.3653               30.814       
       980.36623             57.2538               31.188       
       981.40142             57.4694               31.165       
       985.26806             57.7884               31.078       
        990.1944             58.0602               30.968       
       995.14537             58.2997               30.859       
       1000.1211             58.5305               30.749       
       1005.1217             58.7261               30.568       
       1010.1473             58.9113               30.388       
        1015.198             59.0881               30.21        
        1020.274             59.2577               30.033       
       1025.3754             59.4197               29.85        
       1030.5023             59.5748               29.667       
       1035.6548             59.7237               29.485       
       1040.8331             59.8667               29.305       
       1046.0372             60.0043               29.127       
       1051.2674             60.1367               28.95        
       1056.5238             60.2641               28.774       
       1061.8064             60.3869                28.6        
       1067.1154             60.5051               28.427       
        1072.451              60.619               28.255       
       1077.8132             60.7285               28.085       
       1083.2023             60.8337               27.916       
       1088.6183             60.9345               27.748       
       1094.0614             61.0309               27.582       
       1099.5317             61.1226               27.417       
       1105.0294             61.2096               27.253       
       1110.5545             61.2913               27.09        
       1116.1073             61.3673               26.929       
       1121.6878             61.4365               26.768       
       1127.2963             61.4974               26.608       
       1132.9328              61.547               26.449       
       1138.5974             61.5793               26.292       
       1144.2904             61.5791               26.135       
       1150.0119             61.4763               25.98        
       1151.6164             61.3637               25.937       
       1154.3836             61.4176               26.42        
       1155.7619             61.5604               26.383       
       1161.5407             61.8434               26.23        
       1167.3484             62.0159               26.077       
       1173.1852             62.1549               25.926       
       1179.0511             62.2765               25.776       
       1184.9464             62.3872               25.627       
       1190.8711              62.49                25.48        
       1196.8254             62.5866               25.333       
       1202.8096             62.6782               25.188       
       1208.8236             62.7655               25.044       
       1214.8677              62.849               24.901       
       1220.9421             62.9295               24.759       
       1227.0468             63.0072               24.619       
        1233.182             63.0823               24.48        
       1239.3479              63.155               24.342       
       1245.5447             63.2254               24.205       
       1251.7724             63.2938               24.069       
       1258.0312             63.3602               23.934       
       1264.3214             63.4247               23.801       
        1270.643             63.4875               23.668       
       1276.9962             63.5485               23.536       
       1283.3812              63.608               23.406       
       1289.7981             63.6659               23.276       
       1296.2471             63.7223               23.148       
       1302.7283             63.7773               23.02        
        1309.242             63.8309               22.894       
       1315.7882             63.8832               22.768       
       1322.3671             63.9343               22.644       
        1328.979             63.9841               22.52        
       1335.6239             64.0328               22.398       
        1342.302             64.0803               22.276       
       1349.0135             64.1268               22.156       
       1355.7586             64.1723               22.036       
       1362.5374             64.2169               21.917       
        1369.35              64.2605               21.799       
       1376.1968             64.3028               21.68        
       1383.0778             64.3439               21.561       
       1389.9932             64.3837               21.444       
       1396.9431             64.4223               21.327       
       1403.9278             64.4599               21.211       
       1410.9475             64.4963               21.097       
       1418.0022             64.5317               20.982       
       1425.0922              64.566               20.869       
       1432.2177             64.5993               20.757       
       1439.3788             64.6317               20.646       
       1446.5757              64.663               20.535       
       1453.8086             64.6935               20.425       
       1461.0776              64.723               20.316       
        1468.383             64.7517               20.208       
       1475.7249             64.7795                20.1        
       1483.1035             64.8064               19.994       
        1490.519             64.8326               19.888       
       1497.9716             64.8579               19.783       
       1505.4615             64.8825               19.678       
       1512.9888              64.906               19.574       
       1520.5537             64.9287               19.471       
       1528.1565             64.9506               19.368       
       1535.7973             64.9715               19.266       
       1543.4763             64.9916               19.165       
       1551.1937             65.0109               19.065       
       1558.9496             65.0295               18.965       
       1566.7444             65.0472               18.866       
       1574.5781             65.0641               18.768       
        1582.451             65.0803               18.671       
       1590.3633             65.0957               18.574       
       1598.3151             65.1103               18.478       
       1606.3066             65.1243               18.382       
       1614.3382             65.1375               18.288       
       1622.4099              65.15                18.194       
       1630.5219             65.1618                18.1        
       1638.6745             65.1729               18.008       
       1646.8679             65.1834               17.916       
       1655.1022             65.1932               17.824       
       1663.3777             65.2022               17.733       
       1671.6946             65.2104               17.641       
       1680.0531             65.2178               17.551       
       1688.4534             65.2243               17.461       
       1696.8956              65.23                17.372       
       1705.3801              65.235               17.283       
        1713.907             65.2392               17.195       
       1722.4766             65.2425               17.107       
       1731.0889             65.2683               17.021       
       1739.7444             65.2703               16.934       
       1748.4431             65.2715               16.849       
       1757.1853              65.272               16.764       
       1765.9712             65.2717               16.679       
       1774.8011             65.2706               16.596       
       1783.6751             65.2687               16.512       
       1792.5935             65.2661               16.43        
       1801.5565             65.2627               16.347       
       1810.5642             65.2614               16.266       
       1819.6171             65.2565               16.185       
       1828.7151             65.2508               16.104       
       1837.8587             65.2443               16.025       
        1847.048              65.237               15.945       
       1856.2833              65.229               15.867       
       1865.5647             65.2201               15.788       
       1874.8925             65.2105               15.711       
        1884.267               65.2                15.633       
       1893.6883             65.1887               15.557       
       1903.1567             65.1766               15.481       
       1912.6725             65.1636               15.405       
       1922.2359             65.1498               15.33        
       1931.8471             65.1352               15.256       
       1941.5063             65.1197               15.182       
       1951.2138             65.1033               15.108       
       1960.9699              65.086               15.035       
       1970.7747             65.0679               14.963       
       1980.6286             65.0488               14.891       
       1990.5318             65.0288               14.819       
       2000.4844             65.0079               14.748       
       2010.4868              64.986               14.677       
       2020.5393             64.9632               14.607       
        2030.642             64.9394               14.538       
       2040.7952             64.9146               14.469       
       2050.9992             64.8887                14.4        
       2061.2542             64.8619               14.332       
       2071.5604              64.834               14.264       
       2081.9182              64.805               14.197       
       2092.3278             64.7749               14.13        
       2102.7895             64.7437               14.064       
       2113.3034             64.7114               13.998       
       2123.8699             64.6779               13.933       
       2134.4893             64.6433               13.868       
       2145.1617             64.6074               13.803       
       2155.8875             64.5702               13.739       
        2166.667             64.5318               13.675       
       2177.5003             64.4921               13.612       
       2188.3878             64.4511               13.549       
       2199.3297             64.4086               13.487       
       2210.3264             64.3648               13.425       
        2221.378             64.3196               13.363       
       2232.4849             64.2728               13.302       
       2243.6473             64.2245               13.241       
       2254.8656             64.1747               13.181       
       2266.1399             64.1233               13.121       
       2277.4706             64.0702               13.062       
       2288.8579             64.0154               13.003       
       2300.3022             63.9588               12.944       
       2311.8037             63.8966               12.883       
       2323.3628             63.8359               12.816       
       2334.9796             63.7726               12.75        
       2346.6545             63.7066               12.684       
       2358.3878             63.6378               12.619       
       2370.1797             63.5662               12.554       
       2382.0306             63.4916               12.49        
       2393.9407             63.4141               12.426       
       2405.9104             63.3334               12.362       
        2417.94              63.2495               12.297       
       2430.0297             63.1683               12.229       
       2442.1798             63.0769               12.161       
       2454.3907             62.9814               12.094       
       2466.6627             62.8818               12.027       
        2478.996             62.7778               11.961       
        2491.391             62.6692               11.895       
       2503.8479             62.5559               11.83        
       2516.3672             62.4376               11.764       
        2528.949             62.3142                11.7        
       2541.5938             62.1852               11.635       
       2554.3017             62.0504               11.571       
       2567.0732             61.9096               11.508       
       2579.9086             61.7623               11.445       
       2592.8082             61.6081               11.382       
       2605.7722             61.4466               11.32        
       2618.8011             61.2773               11.258       
       2631.8951             61.0997               11.197       
       2645.0545             60.9132               11.136       
       2658.2798             60.7171               11.076       
       2671.5712             60.5106               11.016       
       2684.9291             60.2928               10.956       
       2698.3537             60.0629               10.897       
       2711.8455             59.8196               10.838       
       2725.4047             59.5617               10.779       
       2739.0317             59.2877               10.721       
       2752.7269             58.9959               10.664       
       2766.4905             58.6842               10.606       
        2780.323             58.3502               10.55        
       2794.2246             57.9911               10.493       
       2808.1957             57.6033               10.437       
       2822.2367             57.1826               10.381       
       2836.3479             56.7236               10.326       
       2850.5296             56.2195               10.271       
       2864.7823             55.6615               10.216       
       2879.1062             55.0377               10.162       
       2893.5017             54.3319               10.108       
       2907.9692             53.5207               10.055       
       2922.5091             52.5686               10.002       
       2937.1216             51.4179               9.9489       
       2951.8072             49.9695               9.8965       
       2966.5662             47.9916               9.8445       
       2981.3991             44.8559               9.7928       
       2996.3061             36.1443               9.7414       
       2998.8482             29.0598               9.7327       
        3000.552             28.7932               25.805       
       3011.2876             42.1044               25.649       
        3026.344             46.1755               25.434       
       3041.4758             48.1844               25.22        
       3056.6831             49.3687               25.009       
       3071.9666             50.0364               24.799       
       3087.3264             50.2632               24.591       
        3102.763             49.9701               24.385       
       3118.2768             48.7402               24.181       
       3133.8682             42.6489               23.979       
        3135.234             39.7354               23.962       
       3137.1659             39.6606               34.572       
       3149.5376             49.1388               34.343       
       3165.2853             52.4315               34.055       
       3181.1117              54.486               33.769       
       3197.0172             56.0404               33.486       
       3213.0023             57.3118               33.206       
       3229.0673             58.3958               32.928       
       3245.2127             59.3438               32.652       
       3261.4387             60.1871               32.377       
       3277.7459             60.9461               32.104       
       3294.1347             61.6351               31.834       
       3310.6053             62.2646               31.566       
       3327.1584             62.8423               31.301       
       3343.7941             63.3742               31.038       
       3360.5131             63.8649               30.777       
       3377.3157              64.318               30.518       
       3394.2023             64.7364               30.262       
       3411.1733             65.1221               30.008       
       3428.2291             65.4767               29.756       
       3445.3703             65.8011               29.507       
       3462.5971             66.0957               29.259       
       3479.9101             66.3603               29.014       
       3497.3097             66.5938               28.771       
       3514.7962             66.7943               28.53        
       3532.3702             66.9584               28.291       
       3550.0321             67.0806               28.055       
       3567.7822             67.1519               27.82        
       3585.6211             67.1568               27.587       
       3603.5492             67.0666               27.357       
        3621.567             66.8193               27.128       
       3639.6748             66.2394               26.902       
       3657.8732             64.2154               26.677       
       3658.5679             64.0033               26.669       
       3667.4323             64.0829               31.386       
       3676.1626             65.9033               31.255       
       3694.5434              67.528               30.981       
       3713.0161             68.4959               30.711       
       3731.5812             69.2238               30.442       
       3750.2391             69.8219               30.176       
       3768.9903             70.3363               29.913       
       3787.8352             70.7903               29.652       
       3806.7744             71.1976               29.393       
       3825.8083             71.5662               29.137       
       3844.9373             71.9002               28.885       
        3864.162             72.2091               28.652       
       3883.4828             72.5011               28.422       
       3902.9002             72.7771               28.194       
       3922.4147             73.0372               27.965       
       3942.0268             73.2824               27.739       
       3961.7369             73.5138               27.515       
       3981.5456             73.7322               27.294       
       4001.4533             73.9385               27.076       
       4021.4606             74.1333               26.86        
       4041.5679              74.317               26.647       
       4061.7757              74.49                26.436       
       4082.0846             74.6524               26.227       
        4102.495             74.8034               26.018       
       4123.0075             74.9424               25.811       
       4143.6226             75.0692               25.607       
       4164.3407             75.1826               25.405       
       4185.1624             75.2813               25.205       
       4206.0882             75.3628               25.007       
       4227.1186              75.423               24.811       
       4248.2542             75.4545               24.617       
       4269.4955              75.443               24.425       
        4290.843             75.3525               24.235       
       4312.2972             75.0426               24.047       
       4320.8125              74.668               23.973       
       4333.1878             74.7152               25.411       
       4333.8587             74.7698               25.405       
        4355.528             75.5931               25.219       
       4377.3056             75.9883               25.035       
       4399.1921             76.2762               24.852       
       4421.1881             76.5112               24.671       
        4443.294             76.7127               24.491       
       4465.5105             76.8894               24.314       
       4487.8381             77.0459               24.138       
       4510.2772              77.184               23.962       
       4532.8286             77.3038               23.789       
       4555.4928             77.4031               23.617       
       4578.2702             77.4765               23.446       
       4601.1616             77.5107               23.277       
       4624.1674             77.4652               23.109       
       4642.3238             77.2379               22.978       
       4647.2882             77.0364               22.942       
       4661.6761             77.3474               23.853       
       4670.5247             77.6095               23.789       
       4693.8773             78.0081               23.624       
       4717.3467             78.2833               23.46        
       4740.9334             78.5112               23.298       
       4764.6381             78.7131               23.136       
       4788.4613             78.8967               22.97        
       4812.4036             79.0663               22.805       
       4836.4656             79.2252               22.642       
       4860.6479             79.3752               22.479       
       4884.9512             79.5178               22.318       
       4909.3759             79.6539               22.158       
       4933.9228             79.7842               21.999       
       4958.5924             79.9094               21.841       
       4983.3854             80.0298               21.684       
       5008.3023             80.1459               21.529       
       5033.3438             80.2581               21.374       
       5058.5105             80.3665               21.22        
       5083.8031             80.4715               21.068       
       5109.2221             80.5732               20.917       
       5134.7682             80.6718               20.767       
       5160.4421             80.7675               20.618       
       5186.2443             80.8605               20.47        
       5212.1755             80.9508               20.323       
       5238.2364             81.0386               20.177       
       5264.4276              81.124               20.032       
       5290.7497             81.2071               19.889       
       5317.2034              81.288               19.746       
       5343.7895             81.3668               19.605       
       5370.5084             81.4436               19.464       
       5397.3609             81.5184               19.325       
       5424.3477             81.5914               19.186       
       5451.4695             81.6625               19.049       
       5478.7268              81.732               18.913       
       5506.1205             81.7998               18.778       
       5533.6511              81.866               18.643       
       5561.3193             81.9308               18.51        
       5589.1259             81.9942               18.378       
       5617.0716             82.0563               18.247       
       5645.1569              82.117               18.116       
       5673.3827              82.176               17.985       
       5701.7496             82.2334               17.855       
       5730.2584             82.2892               17.726       
       5758.9096             82.3437               17.598       
       5787.7042             82.3967               17.471       
       5816.6427             82.4484               17.345       
       5845.7259             82.4988               17.219       
       5874.9546              82.548               17.095       
       5904.3293              82.596               16.972       
        5933.851             82.6429               16.85        
       5963.5202             82.6887               16.729       
       5993.3378             82.7336               16.608       
       6023.3045             82.9336               16.486       
        6053.421             82.9761               16.364       
       6083.6882             83.0172               16.242       
       6114.1066             83.0569               16.121       
       6144.6771             83.0953               16.002       
       6175.4005             83.1324               15.883       
       6206.2775             83.1684               15.765       
       6237.3089             83.2032               15.648       
       6268.4954              83.237               15.533       
       6299.8379             83.3781               15.416       
       6331.3371             83.4095               15.299       
       6362.9938             83.4397               15.184       
       6394.8088             83.4687               15.07        
       6426.7828             83.4966               14.957       
       6458.9167             83.5234               14.844       
       6491.2113             83.5492               14.733       
       6523.6674              83.574               14.622       
       6556.2857             83.5978               14.513       
       6589.0671             83.6208               14.404       
       6622.0125             83.6428               14.296       
       6655.1225             83.6639               14.189       
       6688.3981             83.6842               14.083       
       6721.8401             83.7036               13.978       
       6755.4493             83.7223               13.874       
       6789.2266             83.7402               13.771       
       6823.1727             83.7573               13.668       
       6857.2886             83.7737               13.567       
        6891.575             83.7895               13.466       
       6926.0329             83.8045               13.366       
       6960.6631             83.8189               13.267       
       6995.4664             83.8326               13.169       
       7030.4437             83.8457               13.072       
       7065.5959             83.8582               12.975       
       7100.9239             83.8701               12.879       
       7136.4285             83.8814               12.785       
       7172.1107             83.8922               12.691       
       7207.9712             83.9025               12.597       
       7244.0111             83.9123               12.505       
       7280.2311             83.9216               12.413       
       7316.6323             83.9304               12.322       
       7353.2155             84.0293               12.231       
       7389.9815             84.0375               12.14        
       7426.9314             84.0449               12.05        
       7464.0661             84.0518               11.96        
       7501.3864             84.0582               11.871       
       7538.8934             84.0639               11.783       
       7576.5878             84.0692               11.696       
       7614.4708             84.0739               11.61        
       7652.5431             84.0782               11.524       
       7690.8058              84.082               11.439       
       7729.2599             84.0853               11.355       
       7767.9062             84.0882               11.271       
       7806.7457             84.0906               11.188       
       7845.7794             84.0927               11.106       
       7885.0083             84.0943               11.024       
       7924.4334             84.0955               10.944       
       7964.0555             84.0964               10.864       
       8003.8758             84.0969               10.784       
       8043.8952             84.0971               10.705       
       8084.1147             84.0969               10.627       
       8124.5352             84.0964               10.55        
       8165.1579             84.0956               10.473       
       8205.9837             84.0945               10.397       
       8247.0136             84.0931               10.322       
       8288.2487             84.0914               10.247       
       8329.6899             84.0895               10.173       
       8371.3384             84.0873               10.099       
       8413.1951             84.0849               10.026       
        8455.261             84.0823               9.954        
       8497.5373             84.0795               9.8824       
        8540.025             84.0766               9.8113       
        9030.794             84.4112               9.0167       
        9653.919             84.2523               8.0629       
        10320.04              83.964               7.2189       
        11032.12             83.5906               6.4723       
        11793.34              83.12                5.8069       
        12607.08             82.5053               5.2175       
        13476.97             81.6146               4.6884       
        14406.88             79.8741               4.2089       
        14730.58             78.5098               4.0619       
        14956.04             75.9168               3.965        
        15016.17             72.8721               3.9398       
        15106.36             75.9044               9.8591       
        15331.82             78.5922               9.6263       
        15400.95             78.9881               9.5566       
        16463.62             81.2238               8.5482       
        17548.37             80.8361               7.6554       
        17599.61             80.7123               7.6167       
        17816.97             79.6108               7.4561       
        17888.59             78.0761               7.4043       
        17996.03             79.6241               10.358       
        18266.22             80.9327               10.107       
        18545.8               81.013               9.8572       
        18620.36             80.3858               9.7923       
        18732.19             81.3617               11.222       
        18813.98             81.8093               11.149       
        19011.78             82.4782               10.972       
        20112.15             84.2648               10.061       
        21499.88             85.3656                9.06        
        22983.38             86.0511               8.159        
        24569.23              86.513               7.3481       
        26264.5              86.8367               6.619        
        28076.76             87.0718               5.9278       
        30014.05             87.2035               5.3022       
        32085.02             87.3281               4.734        
        34298.89             87.3466               4.2308       
        36665.51             87.3712               3.7818       
        39195.43             87.3621               3.3698       
        41899.92             87.3029               3.0024       
        44791.01             87.2287               2.6771       
        47881.59             87.1447               2.3889       
        51185.42              87.054               2.1333       
        54717.21             86.9582               1.9065       
        58492.7               86.858               1.7051       
        62528.7              86.7531               1.526        
        66843.18              86.642               1.3656       
        71455.36             86.5199               1.2215       
        76385.78              86.381               1.0936       
        81656.4              86.2161              0.97562       
        87290.69             85.9879               0.8633       
        93313.74             85.6091              0.76448       
        99114.26             84.6796              0.68536       
        99752.39             84.4086              0.67746       
        100631.3             83.6723              0.66682       
        101035.9             82.4676              0.66201       
        101642.7              83.723               3.0253       
        103159.7             84.8204               2.9566       
        106635.3             85.6341               2.8079       
        113993.1             86.3148               2.529        
        121858.7             86.6638               2.275        
        130266.9             86.8793               2.0454       
        139255.3             87.0218               1.8386       
        148864.0              87.119               1.6513       
        159135.6             87.1836               1.482        
        170115.9             87.2258               1.3301       
        181853.9             87.2519               1.1938       
        194401.8             87.2664               1.0716       
        207815.6             87.2723              0.96198       
        222154.8             87.2719              0.86395       
        237483.5             87.2673              0.77605       
        253869.9             87.2596              0.69718       
        271386.9             87.2496              0.62639       
        290112.6             87.2382              0.56285       
        310130.4             87.2258              0.50581       
        331529.4              87.213               0.4546       
        354404.9               87.2               0.40861       
        378858.8              87.187              0.36731       
        405000.1             87.1742              0.33021       
        432945.1             87.1619              0.29688       
