# Ga
# Form Factors from Chantler Tables
# DOI: https://dx.doi.org/10.18434/T4HS32
# automatically retrived 2019-02-28 using URL https://physics.nist.gov/cgi-bin/ffast/ffast.pl

# For f_rel the second term, which is 3/5th of the Cromer-Liberman value, is used as suggested by Chantler.
# Real and imaginary part of the formfactors are: f'(E)=f1(E)+f_rel+f_NT and f''(E)=f2(E)
# see also original publication:  https://doi.org/10.1063/1.555974

# Z = 31
# f_rel = -0.1032 e/atom  (Relativistic correction estimate)
# f_NT = -0.0075615 e/atom (Nuclear Thomson correction)


#        E (eV)            f1 (e/atom)          f2 (e/atom)     
         10.69               3.15198                0.0         
        11.42761             3.09183                0.0         
        12.21612             3.01884                0.0         
        13.05903              2.9286                0.0         
        13.9601              2.81368                0.0         
        14.92335              2.6595                0.0         
        15.95306              2.4281                0.0         
        17.05382             1.90191                0.0         
         17.313               1.4508                0.0         
        17.3826              0.945019               0.0         
         17.487              1.43339              0.97516       
         17.748              1.83886              0.97958       
        18.23053             2.06446              0.98763       
        19.48844             2.22367               1.0092       
        20.83314             2.21897               1.0578       
        22.27063             2.15214               1.1418       
        23.8073               2.0508               1.2615       
        25.45001             1.92725               1.4188       
        27.20606             1.78929               1.6168       
        29.08327             1.64356               1.8592       
        31.09002             1.49683                2.15        
        33.23523             1.35666               2.4925       
        35.52846             1.23162               2.8896       
        37.97993             1.13137               3.3429       
        40.60054             1.06643               3.8522       
        43.40198              1.0479               4.4153       
        46.39671             1.08696               5.0277       
        49.59809             1.19432               5.6822       
        53.02035             1.38877               6.3693       
        56.67876             1.66014               7.0772       
        60.58959             2.02335               7.7923       
        64.77028             2.48203               8.4996       
        69.23942             3.03821               9.1832       
        74.01695             3.69108               9.8181       
        79.12411             4.42213               10.377       
        84.58368              5.2061               10.846       
        90.41995             6.01082               11.218       
        96.65893             6.77799               11.487       
        100.842              7.14467               11.604       
        102.3855             7.11392               11.635       
        102.7971             6.91461               11.643       
        103.3284             7.18608               12.131       
        103.4145             7.22281               12.133       
        104.664              7.53327               12.159       
        104.958              7.58273               12.165       
        106.266              7.72946               12.188       
        106.6932             7.68165               12.195       
        107.334              7.90187               12.437       
        108.936              8.24646               12.461       
        110.4581             8.50418               12.48        
        118.0797             9.56869               12.517       
        126.2272             10.5176               12.48        
        134.9368             11.3901               12.38        
        144.2475             12.1765               12.225       
        154.2005             12.7848               12.025       
        154.938              12.8065               12.009       
        157.3095             12.7561               11.957       
        157.9419             12.5398               11.943       
        158.8905             12.8669               12.434       
        161.262               13.258               12.388       
        164.8404             13.6262               12.317       
        176.2144             14.5147               12.084       
        188.3732             15.2959               11.827       
        201.3709             16.0188               11.548       
        215.2655             16.6967               11.251       
        230.1188              17.336               10.939       
        245.997              17.9414               10.614       
        262.9708             18.5163               10.279       
        281.1158             19.0643               9.9349       
        300.5128             19.5895               9.5828       
        321.2482             20.0952               9.2241       
        343.4143             20.5727               8.7314       
        367.1099             20.9634               8.2053       
        392.4405             21.2796               7.6944       
        419.5189             21.5316               7.2003       
        448.4657             21.7256               6.7227       
        479.4098             21.8639               6.2622       
        512.4891             21.9465               5.8209       
        547.8508             21.9737               5.4005       
        585.6525             21.9438               5.0023       
        626.0625              21.853               4.627        
        669.2609             21.6937               4.2747       
        715.4399             21.4528               3.9455       
        764.8052             21.1076               3.6389       
        817.5768             20.6181               3.3545       
        873.9896             19.9078               3.0916       
         900.0               20.4665               2.9826       
         904.5               20.4043               2.9644       
        909.0225             20.3401               2.9464       
       913.56761             20.2736               2.9284       
       918.13545              20.205               2.9106       
       922.72613             20.1339               2.8929       
       927.33976             20.0604               2.8753       
       931.97646             19.9842               2.8578       
       936.63634             19.9053               2.8404       
       941.31952             19.8233               2.8232       
       946.02612             19.7383               2.806        
       950.75625             19.6499               2.789        
       955.51003              19.558               2.772        
       960.28758             19.4622               2.7552       
       965.08902             19.3625               2.7384       
       969.91446             19.2584               2.7218       
       974.76404             19.1497               2.7053       
       979.63786              19.036               2.6889       
       984.53605             18.9169               2.6725       
       989.45873              18.792               2.6563       
       994.40602             18.6608               2.6402       
       999.37805             18.5227               2.6242       
       1004.3749             18.3744               2.6042       
       1009.3968             18.2171               2.5837       
       1014.4438             18.0503               2.5634       
        1019.516              17.873               2.5434       
       1024.6136             17.6841               2.5234       
       1029.7367             17.4821               2.5037       
       1034.8853             17.2655               2.4842       
       1040.0598             17.0322               2.4648       
       1045.2601              16.78                2.4456       
       1050.4864             16.5058               2.4266       
       1055.7388             16.2061               2.4077       
       1061.0175              15.876               2.389        
       1066.3226             15.5096               2.3705       
       1071.6542             15.0984               2.3521       
       1077.0125             14.6313               2.3339       
       1082.3975             14.0917               2.3159       
       1087.8095             13.4544               2.2981       
       1093.2486              12.678               2.2803       
       1098.7148             11.6858               2.2628       
       1104.2084             10.3097               2.2454       
       1109.7294             8.02547               2.2282       
       1115.2781             -4.2778               2.2111       
        1115.315             -5.41991              2.211        
        1115.485             -5.58976              12.157       
       1120.8545             7.38309               12.061       
       1126.4587             9.26436               11.962       
        1132.091             9.98691               11.864       
       1137.7515              9.7512               11.766       
        1142.213             4.23877               11.69        
       1142.3871             4.18116               16.591       
       1143.4402             8.34121               16.566       
       1149.1574              11.824               16.43        
       1154.9032             13.3476               16.296       
       1160.6777             14.4324               16.163       
       1166.4811             15.2974               16.031       
       1172.3135             16.0239                15.9        
       1178.1751             16.6524               15.77        
        1184.066             17.2067               15.641       
       1189.9863             17.7023               15.513       
       1195.9362             18.1496               15.386       
       1201.9159             18.5562               15.261       
       1207.9255             18.9278               15.136       
       1213.9651             19.2684               15.012       
        1220.035             19.5812               14.89        
       1226.1351             19.8687               14.768       
       1232.2658             20.1326               14.648       
       1238.4271             20.3739               14.528       
       1244.6193             20.5931               14.409       
       1250.8424              20.79                14.292       
       1257.0966             20.9633               14.175       
       1263.3821             21.1106               14.06        
        1269.699             21.2267               13.945       
       1276.0475             21.3018               13.831       
       1282.4277             21.3144               13.718       
       1288.8399             21.2054               13.607       
        1295.284             20.6512               13.496       
       1296.4841             20.2896               13.475       
        1298.916             20.3323               15.253       
       1301.7605             21.1138               15.205       
       1308.2693             21.8519               15.095       
       1314.8106             22.3083               14.986       
       1321.3847             22.6677               14.878       
       1327.9916             22.9755               14.771       
       1334.6316             23.2501               14.665       
       1341.3047             23.5011               14.559       
       1348.0112             23.7338               14.455       
       1354.7513             23.9522               14.351       
        1361.525             24.1587               14.248       
       1368.3327             24.3549               14.144       
       1375.1743             24.5413               14.041       
       1382.0502             24.7192               13.938       
       1388.9605             24.8895               13.836       
       1395.9053             25.0529               13.735       
       1402.8848             25.2099               13.635       
       1409.8992             25.3612               13.535       
       1416.9487             25.5071               13.436       
       1424.0335             25.6479               13.337       
       1431.1536             25.7841               13.24        
       1438.3094             25.9158               13.143       
       1445.5009             26.0433               13.046       
       1452.7284             26.1669               12.951       
       1459.9921             26.2868               12.856       
        1467.292             26.4031               12.762       
       1474.6285             26.5161               12.669       
       1482.0016              26.626               12.576       
       1489.4117             26.7327               12.484       
       1496.8587             26.8366               12.393       
        1504.343             26.9376               12.302       
       1511.8647             27.0359               12.212       
        1519.424             27.1317               12.123       
       1527.0212             27.2249               12.034       
       1534.6563             27.3158               11.946       
       1542.3295             27.4043               11.858       
       1550.0412             27.4906               11.772       
       1557.7914             27.5748               11.685       
       1565.5804             27.6569                11.6        
       1573.4083              27.737               11.515       
       1581.2753             27.8151               11.431       
       1589.1817             27.8914               11.347       
       1597.1276             27.9659               11.264       
       1605.1132             28.0387               11.182       
       1613.1388             28.1097                11.1        
       1621.2045             28.1791               11.019       
       1629.3105              28.247               10.938       
       1637.4571             28.3133               10.858       
       1645.6443             28.3781               10.779       
       1653.8726             28.4415                10.7        
       1662.1419             28.5036               10.622       
       1670.4526             28.5643               10.545       
       1678.8049             28.6238               10.468       
       1687.1989             28.6822               10.391       
       1695.6349             28.7392               10.315       
       1704.1131             28.7948               10.238       
       1712.6337             28.8491               10.163       
       1721.1968             28.9022               10.088       
       1729.8028              28.954               10.013       
       1738.4518             29.0047               9.9394       
       1747.1441             29.0542               9.8661       
       1755.8798             29.1026               9.7933       
       1764.6592             29.1499               9.721        
       1773.4825             29.1962               9.6493       
       1782.3499             29.2415               9.5782       
       1791.2617             29.2858               9.5075       
        1800.218             29.3291               9.4374       
       1809.2191             29.3715               9.3679       
       1818.2652              29.413               9.2988       
       1827.3565             29.4536               9.2303       
       1836.4933             29.4933               9.1622       
       1845.6757             29.5322               9.0947       
       1854.9041             29.5702               9.0277       
       1864.1786             29.6075               8.9612       
       1873.4995             29.6439               8.8952       
        1882.867             29.6796               8.8297       
       1892.2814             29.7146               8.7646       
       1901.7428             29.7488               8.7001       
       1911.2515             29.7823               8.636        
       1920.8077             29.8151               8.5724       
       1930.4118             29.8473               8.5093       
       1940.0638             29.8787               8.4462       
       1949.7642             29.9096               8.3834       
        1959.513             29.9397               8.321        
       1969.3105             29.9692               8.2591       
       1979.1571             29.9981               8.1977       
       1989.0529             30.0264               8.1368       
       1998.9981             30.0541               8.0763       
       2008.9931             30.0812               8.0162       
       2019.0381             30.1077               7.9563       
       2029.1333             30.1337               7.8969       
        2039.279             30.1591               7.8379       
       2049.4754             30.1839               7.7793       
       2059.7227             30.2083               7.7212       
       2070.0213             30.2321               7.6636       
       2080.3714             30.2554               7.6064       
       2090.7733             30.2782               7.5496       
       2101.2272             30.3006               7.4932       
       2111.7333             30.3225               7.4373       
        2122.292             30.3439               7.3818       
       2132.9034             30.3649               7.3268       
        2143.568             30.3855               7.2721       
       2154.2858             30.4057               7.2179       
       2165.0572             30.4255               7.1641       
       2175.8825             30.4448               7.1107       
       2186.7619             30.4639               7.0577       
       2197.6957             30.4825               7.0051       
       2208.6842             30.5008               6.9529       
       2219.7276             30.5188               6.9011       
       2230.8263             30.6455               6.8497       
       2241.9804             30.6628               6.7967       
       2253.1903             30.6796               6.7441       
       2264.4562             30.6959               6.692        
       2275.7785             30.7117               6.6403       
       2287.1574             30.7822               6.5887       
       2298.5932             30.7971               6.5368       
       2310.0862             30.8114               6.4853       
       2321.6366             30.8253               6.4343       
       2333.2448             30.8387               6.3836       
        2344.911             30.8516               6.3333       
       2356.6356             30.8641               6.2835       
       2368.4187             30.8762               6.234        
       2380.2608             30.8879               6.1849       
       2392.1621             30.8991               6.1363       
        2404.123              30.91                6.088        
       2416.1436             30.9206               6.0401       
       2428.2243             30.9307               5.9926       
       2440.3654             30.9406               5.9455       
       2452.5672             30.9501               5.8987       
       2464.8301             30.9593               5.8523       
       2477.1542             30.9682               5.8064       
        2489.54              30.9768               5.7607       
       2501.9877              30.985               5.7155       
       2514.4976             30.9931               5.6706       
       2527.0701             31.0008               5.6261       
       2539.7055             31.0083               5.582        
        2552.404             31.0155               5.5382       
        2565.166             31.0225               5.4947       
       2577.9919             31.0293               5.4517       
       2590.8818             31.0358               5.409        
       2603.8362             31.0839               5.3661       
       2616.8554             31.0901               5.3233       
       2629.9397             31.0961               5.2809       
       2643.0894             31.1018               5.2388       
       2656.3048             31.1072               5.197        
       2669.5863             31.1124               5.1556       
       2682.9343             31.1173               5.1146       
       2696.3489              31.122               5.0739       
       2709.8307             31.1265               5.0335       
       2723.3798             31.1308               4.9935       
       2736.9967              31.135               4.9538       
       2750.6817             31.1389               4.9145       
       2764.4351             31.1426               4.8754       
       2778.2573             31.1462               4.8367       
       2792.1486             31.1496               4.7983       
       2806.1093             31.1529               4.7603       
       2820.1399             31.1561               4.7225       
       2834.2406             31.1591               4.6851       
       2848.4118             31.1621               4.648        
       2862.6539             31.1649               4.6112       
       2876.9671             31.1677               4.5747       
        2891.352             31.1705               4.5385       
       2905.8087             31.1732               4.5026       
       2920.3378             31.1759               4.4671       
       2934.9394             31.1787               4.4318       
       2949.6141             31.1817               4.3968       
       2964.3622             31.1848               4.3621       
        2979.184             31.1882               4.3277       
       2994.0799             31.1921               4.2934       
       3009.0503             31.1967               4.2573       
       3024.0956             31.2005                4.22        
       3039.2161             31.2033               4.1831       
       3054.4122             31.2054               4.1466       
       3069.6842             31.2068               4.1104       
       3085.0326             31.2078               4.0745       
       3100.4578             31.2083               4.0389       
       3115.9601             31.2084               4.0037       
       3131.5399             31.2082               3.9688       
       3147.1976             31.2077               3.9343       
       3162.9336             31.2068                3.9         
       3178.7482             31.2057               3.8661       
        3194.642             31.2044               3.8325       
       3210.6152             31.2028               3.7992       
       3226.6683              31.201               3.7662       
       3242.8016              31.199               3.7335       
       3259.0156             31.1968               3.7011       
       3275.3107             31.1944               3.669        
       3291.6873             31.1919               3.6372       
       3308.1457             31.1891               3.6057       
       3324.6864             31.1862               3.5745       
       3341.3099             31.1832               3.5436       
       3358.0164              31.18                3.5129       
       3374.8065             31.1767               3.4826       
       3391.6805             31.1733               3.4525       
       3408.6389             31.1697               3.4227       
       3425.6821              31.166               3.3932       
       3442.8105             31.1622               3.3639       
       3460.0246             31.1582               3.3349       
       3477.3247             31.1542               3.3062       
       3494.7113              31.15                3.2778       
       3512.1849             31.1458               3.2496       
       3529.7458             31.1414               3.2216       
       3547.3945              31.137               3.194        
       3565.1315             31.1325               3.1665       
       3582.9572             31.1279               3.1394       
       3600.8719             31.1232               3.1124       
       3618.8763             31.1184               3.0858       
       3636.9707             31.1135               3.0593       
       3655.1555             31.1086               3.0331       
       3673.4313             31.1036               3.0072       
       3691.7985             31.0985               2.9815       
       3710.2575             31.0933               2.956        
       3728.8088             31.0881               2.9307       
       3747.4528             31.0828               2.9057       
       3766.1901             31.0775               2.8809       
        3785.021             31.0721               2.8564       
       3803.9461             31.0666               2.832        
       3822.9659             31.0611               2.8079       
       3842.0807             31.0556               2.784        
       3861.2911             31.0499               2.7603       
       3880.5975             31.0443               2.7369       
       3900.0005             31.0386               2.7136       
       3919.5005             31.0328               2.6906       
        3939.098              31.027               2.6678       
       3958.7935             31.0211               2.6451       
       3978.5875             31.0153               2.6227       
       3998.4804             31.0093               2.6005       
       4018.4728             31.0034               2.5785       
       4038.5652             30.9974               2.5567       
        4058.758             30.9913               2.5351       
       4079.0518             30.9853               2.5136       
       4099.4471             30.9791               2.4924       
       4119.9443              30.973               2.4714       
        4140.544             30.9668               2.4505       
       4161.2467             30.9606               2.4299       
        4182.053             30.9544               2.4094       
       4202.9632             30.9482               2.3891       
       4223.9781             30.9419               2.369        
        4245.098             30.9356               2.3491       
       4266.3234             30.9293               2.3294       
       4287.6551             30.9229               2.3098       
       4309.0933             30.9166               2.2904       
       4330.6388             30.9102               2.2712       
        4352.292             30.9038               2.2522       
       4374.0535             30.8974               2.2333       
       4395.9237             30.8909               2.2146       
       4417.9033             30.8845               2.1961       
       4439.9929              30.878               2.1777       
       4462.1928             30.8715               2.1596       
       4484.5038              30.865               2.1415       
       4506.9263             30.8585               2.1236       
       4529.4609              30.852               2.1059       
       4552.1082             30.8455               2.0884       
       4574.8688              30.839               2.071        
       4597.7431             30.8324               2.0538       
       4620.7318             30.8259               2.0367       
       4643.8355             30.8193               2.0197       
       4667.0547             30.8128               2.003        
        4690.39              30.8062               1.9863       
       4713.8419             30.7997               1.9699       
       4737.4111             30.7931               1.9535       
       4761.0982             30.7866               1.9373       
       4784.9037              30.78                1.9213       
       4808.8282             30.7735               1.9054       
       4832.8723             30.7669               1.8896       
       4857.0367             30.7604               1.8734       
       4881.3219             30.7538               1.8572       
       4905.7285             30.7472               1.8413       
       4930.2571             30.7405               1.8255       
       4954.9084             30.7338               1.8097       
       4979.6829             30.7271               1.7939       
       5004.5814             30.7203               1.7782       
       5029.6043             30.7134               1.7626       
       5054.7523             30.7065               1.7472       
        5080.026             30.6995               1.732        
       5105.4262             30.6925               1.7168       
       5130.9533             30.6855               1.7019       
       5156.6081             30.6784               1.6871       
       5182.3911             30.6713               1.6724       
       5208.3031             30.6641               1.6579       
       5234.3446             30.6569               1.6435       
       5260.5163             30.6496               1.6292       
       5286.8189             30.6423               1.6151       
        5313.253              30.635               1.6011       
       5339.8192             30.6277               1.5872       
       5366.5183             30.6203               1.5735       
       5393.3509              30.613               1.5599       
       5420.3177             30.6055               1.5464       
       5447.4193             30.5981               1.5331       
       5474.6564             30.5906               1.5199       
       5502.0297             30.5832               1.5068       
       5529.5398             30.5756               1.4938       
       5557.1875             30.5681               1.481        
       5584.9734             30.5606               1.4683       
       5612.8983              30.553               1.4557       
       5640.9628             30.5454               1.4429       
       5669.1676             30.5378               1.4299       
       5697.5135             30.5301               1.4171       
        5726.001             30.5224               1.4044       
        5754.631             30.5146               1.3919       
       5783.4042             30.5067               1.3794       
       5812.3212             30.4988               1.3671       
       5841.3828             30.4908               1.3549       
       5870.5897             30.4828               1.3428       
       5899.9427             30.4747               1.3308       
       5929.4424             30.4665               1.3189       
       5959.0896             30.4583               1.3072       
        5988.885             30.4501               1.2956       
       6018.8295             30.4418               1.284        
       6048.9236             30.4334               1.2726       
       6079.1682              30.425               1.2613       
       6109.5641             30.4165               1.2501       
       6140.1119              30.408               1.239        
       6170.8125             30.3995               1.228        
       6201.6665             30.3908               1.2171       
       6232.6749             30.3822               1.2063       
       6263.8382             30.3734               1.1956       
       6295.1574             30.3647               1.1851       
       6326.6332             30.3558               1.1746       
       6358.2664             30.3469               1.1642       
       6390.0577              30.338               1.1539       
        6422.008             30.3289               1.1437       
        6454.118             30.3199               1.1336       
       6486.3886             30.3107               1.1236       
       6518.8206             30.3015               1.1137       
       6551.4147             30.2923               1.1039       
       6584.1717             30.2829               1.0942       
        6915.365             30.2036               1.0033       
        7392.525             30.0569              0.89248       
        7902.609             29.8851              0.79466       
        8447.89              29.6694              0.70823       
        9030.794             29.3678              0.62937       
        9653.919             28.8162              0.55215       
        10159.76              27.648              0.49982       
        10320.04             26.1338              0.48485       
        10356.73             24.5278              0.48152       
        10418.94             26.2749               3.8431       
        10574.44             27.8546               3.7266       
        11032.12             29.1935               3.4259       
        11793.34             30.0256               3.0603       
        12607.08             30.4757               2.755        
        13476.97             30.7777               2.4874       
        14406.88             30.9902               2.2265       
        15400.95              31.135               1.9894       
        16463.62             31.2343               1.7746       
        17599.61             31.3007               1.5811       
        18813.98             31.3433               1.408        
        20112.15             31.3689               1.2538       
        21499.88             31.4186               1.1143       
        22983.38             31.4203              0.98861       
        24569.23             31.4148              0.87706       
        26264.5              31.4053              0.77807       
        28076.76             31.3918              0.68692       
        30014.05             31.3739              0.60523       
        32085.02             31.3537               0.5333       
        34298.89             31.3325              0.46995       
        36665.51             31.3111              0.41415       
        39195.43             31.2898               0.365        
        41899.92             31.2693               0.3217       
        44791.01             31.2498              0.28355       
        47881.59              31.231              0.24851       
        51185.42             31.2126              0.21775       
        54717.21              31.195              0.19081       
        58492.7              31.1784              0.16721       
        62528.7              31.1628              0.14653       
        66843.18             31.1484              0.12842       
        71455.36              31.135              0.11255       
        76385.78             31.1228              0.098642      
        81656.4              31.1117              0.086354      
        87290.69             31.1012              0.075397      
        93313.74             31.0915              0.065833      
        99752.39             31.0826              0.057485      
        106635.3             31.0745              0.050197      
        113993.1             31.0671              0.043834      
        121858.7             31.0604              0.03828       
        130266.9             31.0543              0.03343       
        139255.3             31.0488              0.029196      
        148864.0             31.0438              0.025499      
        159135.6             31.0392              0.022271      
        170115.9             31.0352              0.019452      
        181853.9             31.0315              0.01699       
        194401.8             31.0282              0.014841      
        207815.6             31.0252              0.012964      
        222154.8             31.0225              0.011324      
        237483.5             31.0201             0.0098927      
        253869.9              31.018             0.0086422      
        271386.9             31.0161             0.0075501      
        290112.6             31.0143             0.0065961      
        310130.4             31.0128             0.0057629      
        331529.4             31.0114              0.005035      
        354404.9             31.0101             0.0043993      
        378858.8              31.009             0.0038439      
        405000.1              31.008             0.0033587      
        432945.1             31.0072             0.0029349      
