# Gd
# Form Factors from Chantler Tables
# DOI: https://dx.doi.org/10.18434/T4HS32
# automatically retrived 2019-02-28 using URL https://physics.nist.gov/cgi-bin/ffast/ffast.pl

# For f_rel the second term, which is 3/5th of the Cromer-Liberman value, is used as suggested by Chantler.
# Real and imaginary part of the formfactors are: f'(E)=f1(E)+f_rel+f_NT and f''(E)=f2(E)
# see also original publication:  https://doi.org/10.1063/1.555974

# Z = 64
# f_rel = -0.6 e/atom  (Relativistic correction estimate)
# f_NT = -0.014289 e/atom (Nuclear Thomson correction)


#        E (eV)            f1 (e/atom)          f2 (e/atom)     
        8.35371              13.2097                0.0         
        8.481573             13.1819                0.0         
        8.51567              13.1665                0.0         
        8.566815             13.1686              0.019667      
        8.694678             13.1559              0.019324      
        9.093814             13.0748              0.018323      
        9.233005             13.0083              0.017996      
        9.270123             12.9446              0.01791       
        9.325799             12.9986              0.13389       
        9.46499              13.0338              0.13155       
         10.69               12.9235              0.11642       
        11.42761             12.7999               0.1149       
        12.21612             12.6419              0.11823       
        13.05903             12.4423              0.12603       
        13.9601              12.1876              0.13838       
        14.92335             11.8541              0.15568       
        15.95306             11.3991              0.17868       
        17.05382             10.7332              0.20836       
        18.23053             9.62346              0.24598       
        19.48844             7.04472               0.2931       
         19.894              4.95758              0.30984       
        20.1985              0.508358             0.32291       
        20.2797              -4.87034             0.32647       
        20.4015              0.785012              10.947       
         20.706              5.76199               10.71        
        20.83314             6.77123               10.614       
        22.27063             11.7709               9.6389       
        23.8073              14.0334               8.6774       
        25.45001             15.3779               7.6765       
        27.20606             16.1513               6.7379       
        29.08327             16.4765               5.9222       
        31.09002             16.6427               5.2582       
        33.23523              16.645               4.7528       
         35.378              16.5486               4.4181       
        35.52846             16.5385                4.4         
        35.9195              16.5057               4.3559       
        36.0639              16.4811               4.3406       
        36.2805              16.4852               4.3514       
         36.822              16.4682               4.3032       
        37.97993             16.4096               4.2232       
        40.60054             16.2666               4.1376       
        43.40198             16.1333               4.1554       
        46.39671             16.0235               4.2536       
        49.59809             15.9462               4.419        
        53.02035             15.9079               4.6376       
        56.67876             15.9114               4.8971       
        60.58959             15.9574               5.1869       
        64.77028             16.0625               5.4977       
        69.23942             16.1889               5.8218       
        74.01695             16.3506               6.1529       
        79.12411             16.5431               6.4858       
        84.58368             16.7603               6.8167       
        90.41995             16.9955               7.1432       
        96.65893             17.2392               7.4631       
         100.0               20.0918               7.6231       
         100.5               20.1097               7.6464       
        101.0025             20.1276               7.6697       
       101.50751             20.1454               7.6929       
       102.01505             20.1631               7.7161       
       102.52513             20.1807               7.7392       
       103.03775             20.1981               7.7623       
       103.55294             20.2154               7.7853       
        104.0707             20.2325               7.8083       
       104.59106             20.2494               7.8312       
       105.11401             20.2662               7.8541       
       105.63958             20.2827               7.877        
       106.16778             20.2991               7.8998       
       106.69862             20.3151               7.9225       
       107.23211              20.331               7.9452       
       107.76827             20.3465               7.9679       
       108.30712             20.3624               7.9905       
       108.84865             20.3773               8.0131       
       109.39289             20.3919               8.0356       
       109.93986             20.4062               8.0581       
       110.48956              20.42                8.0805       
       111.04201             20.4334               8.1029       
       111.59722             20.4464               8.1253       
        112.1552             20.4589               8.1476       
       112.71598             20.4708               8.1699       
       113.27956             20.4822               8.1921       
       113.84596              20.493               8.2143       
       114.41519             20.5032               8.2364       
       114.98726             20.5126               8.2585       
        115.5622             20.5214               8.2806       
       116.14001             20.5293               8.3026       
       116.72071             20.5363               8.3246       
       117.30431             20.5425               8.3465       
       117.89083             20.5476               8.3684       
       118.48029             20.5516               8.3902       
       119.07269             20.5545               8.412        
       119.66805             20.5561               8.4338       
       120.26639             20.5563               8.4556       
       120.86772             20.5551               8.4773       
       121.47206             20.5521               8.4989       
       122.07942             20.5474               8.5205       
       122.68982             20.5408               8.5421       
       123.30327              20.532               8.5637       
       123.91979             20.5209               8.5852       
       124.53939             20.5071               8.6067       
       125.16208             20.4905               8.6282       
       125.78789             20.4707               8.6496       
       126.41683             20.4473               8.671        
       127.04892              20.42                8.6923       
       127.68416             20.3882               8.7137       
       128.32258             20.3513               8.7349       
       128.96419             20.3087               8.7562       
       129.60902             20.2596               8.7775       
       130.25706             20.2028               8.7987       
       130.90835             20.1373               8.8199       
       131.56289             20.0615               8.841        
        132.2207             19.9734               8.8621       
       132.88181             19.8708               8.8832       
       133.54621             19.7505               8.9043       
       134.21395             19.6081               8.9254       
       134.88502             19.4381               8.9464       
       135.55944             19.2323               8.9674       
       136.23724             18.9787               8.9884       
       136.91842             18.6585               9.0094       
       137.60302             18.2403               9.0304       
       138.29103             17.6653               9.0513       
       138.98249             16.8045               9.0722       
        139.6774             15.2719               9.0931       
       140.37579             9.93257               9.114        
       140.46403             6.19564               9.1166       
       140.53596             6.28437               18.785       
       141.07766             15.2536               18.453       
       141.78305             18.0396               18.041       
       142.49197             19.6242               17.649       
       143.20443              20.734               17.277       
       143.92045             21.5809               16.922       
       144.64005              22.258               16.585       
       145.36325             22.8151               16.265       
       146.09007             23.2827               15.96        
       146.82052             23.6805               15.67        
       147.55462             24.0225               15.395       
       148.29239             24.3187               15.134       
       149.03386             24.5768               14.886       
       149.77903             24.8027               14.65        
       150.52792              25.001               14.426       
       151.28056             25.1754               14.214       
       152.03696              25.329               14.012       
       152.79715             25.4641               13.821       
       153.56113             25.5827               13.639       
       154.32894             25.6862               13.467       
       155.10058             25.7757               13.305       
       155.87609             25.8529               13.155       
       156.65547             25.9207               13.018       
       157.43875             25.9812               12.892       
       158.22594             26.0358               12.776       
       159.01707             26.0858               12.669       
       159.81215             26.1321               12.571       
       160.61121             26.1755               12.477       
       161.41427             26.2165               12.388       
       162.22134             26.2555               12.306       
       163.03245             26.2929               12.23        
       163.84761             26.3291               12.16        
       164.66685             26.3644               12.096       
       165.49018             26.3991               12.036       
       166.31763             26.4335               11.981       
       167.14922             26.4677               11.931       
       167.98497              26.502               11.884       
       168.82489             26.5364               11.841       
       169.66902             26.5712               11.802       
       170.51736             26.6064               11.765       
       171.36995             26.6421               11.732       
        172.2268             26.6785               11.702       
       173.08793             26.7156               11.674       
       173.95337             26.7535               11.649       
       174.82314             26.7928               11.601       
       175.69726              26.832               11.542       
       176.57574             26.8704               11.484       
       177.45862              26.908               11.428       
       178.34591             26.9451               11.374       
       179.23764             26.9814               11.321       
       180.13383             27.0172               11.27        
        181.0345             27.0524               11.22        
       181.93967              27.087               11.171       
       182.84937             27.1211               11.124       
       183.76362             27.1546               11.077       
       184.68244             27.1877               11.032       
       185.60585             27.2202               10.988       
       186.53388             27.2522               10.944       
       187.46655             27.2838               10.902       
       188.40388             27.3149               10.86        
        189.3459             27.3455               10.82        
       190.29263             27.3757               10.78        
       191.24409             27.4054               10.74        
       192.20031             27.4346               10.702       
       193.16131             27.4634               10.664       
       194.12712             27.4917               10.626       
       195.09776             27.5195               10.59        
       196.07325             27.5469               10.554       
       197.05361             27.5739               10.518       
       198.03888             27.6004               10.483       
       199.02907             27.6264               10.449       
       200.02422              27.652               10.414       
       201.02434             27.6771               10.381       
       202.02946             27.7018               10.348       
       203.03961             27.7259               10.315       
       204.05481             27.7497               10.283       
       205.07508             27.7729               10.251       
       206.10046             27.7956               10.22        
       207.13096             27.8179               10.189       
       208.16661             27.8397               10.158       
       209.20745              27.861               10.128       
       210.25348             27.8817               10.098       
       211.30475              27.902               10.069       
       212.36128             27.9218               10.04        
       213.42308              27.941               10.011       
        214.4902             27.9597               9.9825       
       215.56265             27.9779               9.9544       
       216.64046             27.9956               9.9266       
       217.72366             28.0127               9.8992       
       218.81228             28.0293               9.8721       
       219.90634             28.0452               9.8453       
       221.00588             28.0606               9.8188       
        222.1109             28.0755               9.7927       
       223.22146             28.0897               9.7668       
       224.33757             28.1033               9.7413       
       225.45925             28.1163               9.7161       
       226.58655             28.1286               9.6911       
       227.71948             28.1403               9.6665       
       228.85808             28.1513               9.6422       
       230.00237             28.1617               9.6183       
       231.15238             28.1713               9.5946       
       232.30814             28.1802               9.5712       
       233.46969             28.1883               9.5481       
       234.63703             28.1956               9.5253       
       235.81022             28.2021               9.5029       
       236.98927             28.2078               9.4807       
       238.17422             28.2126               9.4589       
       239.36509             28.2164               9.4373       
       240.56191             28.2193               9.4161       
       241.76472             28.2211               9.3951       
       242.97355             28.2218               9.3745       
       244.18841             28.2214               9.3542       
       245.40936             28.2197               9.3342       
        246.6364             28.2166               9.3145       
       247.86959             28.2122               9.2951       
       249.10893             28.2061               9.276        
       250.35448             28.1983               9.2573       
       251.60625             28.1886               9.2388       
       252.86428             28.1768               9.2207       
        254.1286             28.1626               9.2029       
       255.39925             28.1457               9.1854       
       256.67624             28.1256               9.1682       
       257.95962             28.1019               9.1513       
       259.24942             28.0738               9.1348       
       260.54567             28.0404               9.1186       
        261.8484             28.0004               9.1027       
       263.15764             27.9517               9.0871       
       264.47343             27.8913               9.0718       
       265.79579              27.814               9.0569       
       267.12477             27.7097               9.0423       
        268.4604              27.555               9.028        
        269.8027             27.2664               9.014        
       270.68519             26.6714               9.0051       
       271.11483             26.6713               10.149       
       271.15171             26.7292               10.149       
       272.50747             27.4074               10.139       
       273.87001             27.6326               10.13        
       275.23936             27.7715               10.121       
       276.61556             27.8715               10.113       
       277.99863             27.9486               10.105       
       279.38863             28.0099               10.097       
       280.78557             28.0589               10.09        
        282.1895             28.0969               10.083       
       283.60044             28.1236               10.076       
       285.01845              28.136               10.069       
       286.44354             28.1244               10.063       
       287.87576             28.0362               10.057       
       288.23661             27.9515               10.056       
       288.76341             27.9661                10.4        
       289.31514             28.1056               10.399       
       290.76171             28.2566               10.395       
       292.21552             28.3485               10.392       
        293.6766             28.4209               10.389       
       295.14498              28.483               10.387       
       296.62071             28.5386               10.384       
       298.10381             28.5897               10.382       
       299.59433             28.6373               10.381       
        301.0923             28.6822               10.38        
       302.59776             28.7248               10.379       
       304.11075             28.7656               10.378       
        305.6313             28.8048               10.377       
       307.15946             28.8426               10.377       
       308.69526             28.8792               10.377       
       310.23873             28.9148               10.378       
       311.78993             28.9493               10.378       
       313.34888             28.9831               10.379       
       314.91562              29.016               10.38        
        316.4902             29.0483               10.382       
       318.07265             29.0799               10.383       
       319.66301             29.1109               10.385       
       321.26133             29.1413               10.387       
       322.86764             29.1712               10.39        
       324.48197             29.2006               10.392       
       326.10438             29.2296               10.395       
       327.73491              29.258               10.398       
       329.37358             29.2861               10.401       
       331.02045             29.3137               10.405       
       332.67555             29.3409               10.409       
       334.33893             29.3676               10.412       
       336.01062              29.394               10.416       
       337.69068             29.4199               10.421       
       339.37913             29.4453               10.425       
       341.07602             29.4703               10.429       
        342.7814             29.4948               10.434       
       344.49531             29.5187               10.439       
       346.21779             29.5421               10.444       
       347.94888             29.5648               10.449       
       349.68862             29.5869               10.454       
       351.43706             29.6081               10.46        
       353.19425             29.6284               10.465       
       354.96022             29.6477               10.471       
       356.73502             29.6656               10.476       
        358.5187             29.6821               10.482       
       360.31129             29.6967               10.488       
       362.11285             29.7089               10.494       
       363.92341             29.7182                10.5        
       365.74303             29.7233               10.506       
       367.57174             29.7226               10.512       
        369.4096             29.7132               10.518       
       371.25665             29.6888               10.525       
       373.11293             29.6331               10.531       
        374.9785             29.4654               10.537       
       375.34905             29.3702               10.538       
       376.25097              29.386               11.074       
       376.85339             29.5405               11.077       
       378.73766             29.7481               11.084       
       380.63135             29.8664               11.092       
        382.5345              29.957               11.099       
       384.44718             30.0339               11.106       
       386.36941             30.1027               11.113       
       388.30126             30.1662               11.121       
       390.24276             30.2258               11.128       
       392.19398             30.2827               11.135       
       394.15495             30.3374               11.142       
       396.12572             30.3904               11.149       
       398.10635             30.4421               11.156       
       400.09688             30.4928               11.163       
       402.09737             30.5425               11.17        
       404.10785             30.5915               11.176       
       406.12839             30.6399               11.183       
       408.15904             30.6877               11.19        
       410.19983             30.7352               11.196       
       412.25083             30.7822               11.202       
       414.31208             30.8289               11.208       
       416.38364             30.8754               11.214       
       418.46556             30.9217               11.22        
       420.55789             30.9677               11.226       
       422.66068             31.0021               11.231       
       424.77398             31.0478               11.237       
       426.89785             31.0934               11.242       
       429.03234             31.1389               11.247       
        431.1775             31.1842               11.251       
       433.33339             31.2295               11.256       
       435.50006             31.2747               11.26        
       437.67756             31.3198               11.264       
       439.86595             31.3649               11.268       
       442.06528             31.4099               11.271       
        444.2756             31.4548               11.275       
       446.49698             31.4997               11.278       
       448.72947             31.5445               11.28        
       450.97311             31.5892               11.283       
       453.22798             31.6339               11.285       
       455.49412             31.6786               11.287       
       457.77159             31.7232               11.289       
       460.06045             31.7678               11.291       
       462.36075             31.8123               11.292       
       464.67255             31.8567               11.293       
       466.99592             31.9011               11.293       
        469.3309             31.9454               11.294       
       471.67755             31.9897               11.294       
       474.03594             32.0339               11.293       
       476.40612              32.078               11.293       
       478.78815              32.122               11.292       
       481.18209              32.166               11.29        
        483.588              32.2098               11.289       
       486.00594             32.2536               11.287       
       488.43597             32.2973               11.285       
       490.87815             32.3408               11.282       
       493.33254             32.3843               11.279       
        495.7992             32.4276               11.276       
        498.2782             32.4708               11.273       
       500.76959             32.5139               11.269       
       503.27344             32.5568               11.265       
        505.7898             32.5996               11.26        
       508.31875             32.6423               11.255       
       510.86035             32.6848               11.25        
       513.41465             32.7271               11.244       
       515.98172             32.7693               11.238       
       518.56163             32.8112               11.232       
       521.15444              32.853               11.226       
       523.76021             32.8946               11.219       
       526.37901              32.936               11.211       
       529.01091             32.9772               11.204       
       531.65596             33.0182               11.196       
       534.31424              33.059               11.187       
       536.98581             33.0995               11.178       
       539.67074             33.1398               11.169       
        542.3691             33.1798               11.16        
       545.08094             33.2196               11.15        
       547.80635             33.2592               11.14        
       550.54538             33.2984               11.129       
        553.2981             33.3374               11.119       
        556.0646             33.3761               11.107       
       558.84492             33.4146               11.096       
       561.63914             33.4527               11.084       
       564.44734             33.4905               11.072       
       567.26958              33.528               11.059       
       570.10592             33.5652               11.046       
       572.95645              33.602               11.032       
       575.82123             33.6385               11.018       
       578.70034             33.6746               11.004       
       581.59384             33.7102               10.989       
       584.50181             33.7455               10.974       
       587.42432             33.7803               10.958       
       590.36144             33.8147               10.942       
       593.31325             33.8487               10.926       
       596.27982             33.8822               10.909       
       599.26122             33.9152               10.892       
       602.25752             33.9477               10.874       
       605.26881             33.9797               10.856       
       608.29515             34.0112               10.838       
       611.33663             34.0421               10.819       
       614.39331             34.0726                10.8        
       617.46528             34.1024               10.781       
        620.5526             34.1317               10.761       
       623.65537             34.1604               10.741       
       626.77364             34.1886               10.721       
       629.90751             34.2161                10.7        
       633.05705              34.243               10.679       
       636.22234             34.2693               10.658       
       639.40345              34.295               10.636       
       642.60046              34.32                10.614       
       645.81347             34.3443               10.592       
       649.04253              34.368               10.57        
       652.28775              34.391               10.547       
       655.54919             34.4133               10.524       
       658.82693             34.4349                10.5        
       662.12107             34.4558               10.477       
       665.43167              34.476               10.453       
       668.75883             34.4954               10.429       
       672.10262             34.5141               10.405       
       675.46314              34.532               10.38        
       678.84045             34.5491               10.355       
       682.23466             34.5655               10.33        
       685.64583              34.581               10.305       
       689.07406             34.5957               10.279       
       692.51943             34.6097               10.253       
       695.98202             34.6227               10.227       
       699.46194             34.6349               10.201       
       702.95924             34.6463               10.175       
       706.47404             34.6568               10.148       
       710.00641             34.6664               10.122       
       713.55644             34.6751               10.095       
       717.12423             34.6828               10.068       
       720.70985             34.6897               10.041       
        724.3134             34.6956               10.013       
       727.93496             34.7005               9.9857       
       731.57464             34.7045               9.958        
       735.23251             34.7074               9.9302       
       738.90867             34.7094               9.9022       
       742.60322             34.7103               9.8741       
       746.31623             34.7102               9.8459       
       750.04781             34.7091               9.8176       
       753.79805             34.7069               9.7891       
       757.56704             34.7035               9.7605       
       761.35488             34.6991               9.7319       
       765.16165             34.6935               9.7031       
       768.98746             34.6868               9.6742       
        772.8324             34.6789               9.6452       
       776.69656             34.6699               9.6162       
       780.58004             34.6596               9.587        
       784.48294              34.648               9.5578       
       788.40536             34.6353               9.5285       
       792.34738             34.6212               9.4991       
       796.30912             34.6058               9.4697       
       800.29067             34.5891               9.4402       
       804.29212              34.571               9.4107       
       808.31358             34.5516               9.3811       
       812.35515             34.5307               9.3514       
       816.41693             34.5113               9.3217       
       820.49901             34.4875               9.292        
        824.6015             34.4622               9.2622       
       828.72451             34.4354               9.2324       
       832.86813              34.407               9.2025       
       837.03248              34.377               9.1727       
       841.21764             34.3453               9.1428       
       845.42373              34.312               9.1129       
       849.65084             34.2769               9.0829       
        853.8991              34.24                9.053        
       858.16859             34.2013               9.023        
       862.45944             34.1607               8.9931       
       866.77173              34.119               8.9631       
       871.10559             34.0745               8.9332       
       875.46112             34.0281               8.9032       
       879.83843             33.9795               8.8732       
       884.23762             33.9288               8.8433       
       888.65881              33.876               8.8134       
        893.1021             33.8208               8.7835       
       897.56761             33.7633               8.7536       
       902.05545             33.7035               8.7237       
       906.56573             33.6411               8.6938       
       911.09856             33.5762               8.664        
       915.65405             33.5087               8.6342       
       920.23232             33.4385               8.6044       
       924.83348             33.3655               8.5747       
       929.45765             33.2895               8.545        
       934.10494             33.2106               8.5153       
       938.77546             33.1286               8.4857       
       943.46934             33.0435               8.4561       
       948.18668              32.955               8.4266       
       952.92762             32.8631               8.3971       
       957.69226             32.7677               8.3676       
       962.48072             32.6686               8.3382       
       967.29312             32.5658               8.3089       
       972.12959             32.4592               8.2796       
       976.99023             32.3485               8.2503       
       981.87519             32.2338               8.2211       
       986.78456             32.1148               8.192        
       991.71848             31.9916               8.163        
       996.67708              31.864               8.1339       
       1001.6605             31.7259               8.0996       
       1006.6688             31.5686               8.0546       
       1011.7021             31.4033                8.01        
       1016.7606             31.2296               7.9656       
       1021.8444             31.0473               7.9215       
       1026.9536             30.8556               7.8777       
       1032.0884             30.6542               7.8341       
       1037.2489             30.4423               7.7909       
       1042.4351             30.2191               7.7479       
       1047.6473             29.9839               7.7053       
       1052.8855             29.7357               7.6629       
       1058.1499             29.4734               7.6208       
       1063.4407             29.1958               7.5789       
       1068.7579             28.9016               7.5374       
       1074.1017             28.5893               7.4961       
       1079.4722             28.2568               7.4551       
       1084.8695             27.9023               7.414        
       1090.2939             27.5231               7.3716       
       1095.7454             27.1163               7.3296       
       1101.2241             26.6784               7.2878       
       1106.7302             26.2054               7.2464       
       1112.2639             25.6921               7.2052       
       1117.8252             25.1323               7.1643       
       1123.4143             24.5182               7.1237       
       1129.0314             23.8396               7.0834       
       1134.6765             23.0837               7.0433       
       1140.3499             22.2325               7.0035       
       1146.0517             21.2613               6.964        
       1151.7819             20.1339               6.9248       
       1157.5408             18.7939               6.8853       
       1163.3285             17.1463               6.8457       
       1169.1452             15.0091               6.8064       
       1174.9909             11.9519               6.7674       
       1180.8659             6.37618               6.7286       
       1185.0578             -14.7683              6.7012       
       1185.3422             -15.1056               25.9        
       1186.7702            -0.517733              25.854       
        1192.704             8.46718               25.662       
       1198.6676             11.1758               25.472       
       1204.6609             12.0958               25.283       
       1210.6842              11.351               25.096       
       1216.7376              2.2836               24.91        
        1216.959            -0.280404              24.904       
        1217.441            -0.374992              37.507       
       1222.8213             13.4452               37.258       
       1228.9354             17.5253               36.978       
       1235.0801             20.1965                36.7        
       1241.2555             22.2583               36.424       
       1247.4618             23.9629               36.151       
       1253.6991             25.4265               35.879       
       1259.9676             26.7135               35.61        
       1266.2674             27.8643               35.343       
       1272.5988             28.9059               35.077       
       1278.9618             29.8574               34.814       
       1285.3566             30.7332               34.553       
       1291.7833             31.5438               34.294       
       1298.2423              32.298               34.037       
       1304.7335             33.0023               33.782       
       1311.2571             33.6624               33.529       
       1317.8134             34.2827               33.278       
       1324.4025             34.8671               33.029       
       1331.0245             35.4186               32.781       
       1337.6796             35.9401               32.536       
        1344.368             36.4337               32.293       
       1351.0899             36.9016               32.051       
       1357.8453             37.3453               31.811       
       1364.6345             37.7665               31.574       
       1371.4577             38.1662               31.338       
        1378.315             38.5457               31.103       
       1385.2066             38.9058               30.871       
       1392.1326             39.2473               30.64        
       1399.0933             39.5709               30.412       
       1406.0887             39.8771               30.185       
       1413.1192             40.1663               29.959       
       1420.1848             40.4386               29.736       
       1427.2857             40.6942               29.514       
       1434.4221             40.9331               29.294       
       1441.5942             41.1549               29.076       
       1448.8022             41.3593               28.859       
       1456.0462             41.5454               28.644       
       1463.3265             41.7121               28.431       
       1470.6431              41.858               28.219       
       1477.9963             41.9806               28.009       
       1485.3863             42.0769                27.8        
       1492.8132             42.1419               27.593       
       1500.2773             42.1684               27.388       
       1507.7787             42.1448               27.184       
       1515.3176             42.0507               26.982       
       1522.8942             41.8463               26.781       
       1530.5086             41.4359               26.582       
       1538.1612             40.4625               26.384       
       1542.7108             38.4229               26.267       
       1545.2893             38.4315               30.743       
        1545.852              38.975               30.725       
       1553.5812             41.5876               30.476       
       1561.3491             42.6547               30.229       
       1569.1559              43.383               29.984       
       1577.0017             43.9517               29.741       
       1584.8867             44.4237               29.499       
       1592.8111             44.8279               29.258       
       1600.7752             45.1798               29.019       
        1608.779              45.488               28.782       
       1616.8229             45.7569               28.547       
        1624.907             45.9888               28.326       
       1633.0316             46.1953               28.116       
       1641.1967             46.3751               27.91        
       1649.4027             46.5238               27.705       
       1657.6497             46.6335               27.504       
        1665.938             46.6876               27.305       
       1674.2677             46.6433               27.108       
        1682.639             46.3288               26.914       
       1686.8076             45.6433               26.819       
       1689.7925             45.6961               28.633       
       1691.0522             46.0974               28.601       
       1699.5075             47.1547               28.389       
        1708.005             47.6933               28.179       
        1716.545             48.0981               27.972       
       1725.1278             48.4359               27.768       
       1733.7534             48.7315               27.566       
       1742.4222             48.9965               27.366       
       1751.1343             49.2374               27.168       
       1759.8899              49.458               26.972       
       1768.6894             49.6599               26.779       
       1777.5328              49.845               26.594       
       1786.4205             50.0193               26.416       
       1795.3526              50.183               26.24        
       1804.3294             50.3355               26.066       
        1813.351             50.4763               25.894       
       1822.4178             50.6043               25.725       
       1831.5299             50.7176               25.557       
       1840.6875             50.8127               25.392       
       1849.8909             50.8829               25.229       
       1859.1404             50.9135               25.067       
       1868.4361              50.864               24.908       
       1877.7783             50.4941               24.75        
       1877.8472             50.4867               24.749       
       1883.7529             50.5743               25.825       
       1887.1672             50.9179               25.767       
        1896.603             51.4087               25.609       
        1906.086             51.7311               25.452       
       1915.6165             51.9939               25.297       
       1925.1945             52.2248               25.143       
       1934.8205             52.4354               24.991       
       1944.4946             52.6314               24.84        
       1954.2171             52.8165               24.69        
       1963.9882             52.9929               24.542       
       1973.8081             53.1619               24.395       
       1983.6772             53.3252               24.251       
       1993.5955             53.4841               24.108       
       2003.5635             53.6394               23.966       
       2013.5813             53.7909               23.821       
       2023.6492             53.9373               23.673       
       2033.7675             54.0792               23.527       
       2043.9363              54.217               23.382       
        2054.156             54.3512               23.238       
       2064.4268             54.4819               23.095       
       2074.7489             54.6095               22.953       
       2085.1227             54.7342               22.812       
       2095.5483             54.8562               22.672       
        2106.026             54.9756               22.533       
       2116.5562             55.0926               22.395       
       2127.1389             55.2073               22.258       
       2137.7746             55.3199               22.122       
       2148.4635             55.4305               21.987       
       2159.2058             55.5393               21.852       
       2170.0018             55.6464               21.718       
       2180.8519             55.7519               21.586       
       2191.7561              55.856               21.454       
       2202.7149             55.9585               21.32        
       2213.7285             56.0586               21.186       
       2224.7971             56.1566               21.052       
       2235.9211             56.2525               20.92        
       2247.1007             56.3466               20.788       
       2258.3362             56.4389               20.657       
       2269.6279             56.5294               20.527       
        2280.976             56.6183               20.398       
       2292.3809             56.7056               20.269       
       2303.8428             56.7914               20.141       
        2315.362             56.8757               20.014       
       2326.9388             56.9586               19.888       
       2338.5735             57.0402               19.762       
       2350.2664             57.1205               19.637       
       2362.0177             57.1996               19.513       
       2373.8278             57.4955               19.389       
        2385.697             57.5721               19.261       
       2397.6254             57.6471               19.134       
       2409.6136             57.7206               19.009       
       2421.6616             57.7926               18.884       
       2433.7699             57.8632               18.759       
       2445.9388             58.0807               18.633       
       2458.1685             58.1483               18.507       
       2470.4593             58.2142               18.381       
       2482.8116             58.2783               18.256       
       2495.2257             58.3409               18.132       
       2507.7018              58.402               18.009       
       2520.2403             58.4617               17.887       
       2532.8415             58.5199               17.766       
       2545.5057             58.5768               17.645       
       2558.2333             58.6324               17.525       
       2571.0244             58.6868               17.407       
       2583.8796              58.74                17.289       
        2596.799              58.792               17.172       
       2609.7829             58.8429               17.055       
       2622.8319             58.8927               16.94        
        2635.946             58.9415               16.825       
       2649.1257             58.9893               16.709       
       2662.3714              59.036               16.594       
       2675.6832             59.0817               16.479       
       2689.0617             59.1263               16.365       
        2702.507              59.17                16.252       
       2716.0195             59.2127               16.14        
       2729.5996             59.2546               16.028       
       2743.2476             59.2955               15.918       
       2756.9638             59.3356               15.808       
       2770.7486              59.375                15.7        
       2784.6024             59.4135               15.592       
       2798.5254             59.4514               15.485       
        2812.518             59.4885               15.379       
       2826.5806              59.525               15.273       
       2840.7135              59.561               15.169       
       2854.9171             59.5963               15.065       
       2869.1917             59.6312               14.963       
       2883.5376             59.6655               14.861       
       2897.9553             59.6995               14.76        
       2912.4451             59.7331               14.66        
       2927.0073             59.7664               14.56        
       2941.6424             59.7994               14.462       
       2956.3506             59.8323               14.364       
       2971.1323             59.8651               14.267       
        2985.988              59.898               14.171       
       3000.9179             59.9312               14.075       
       3015.9225             59.9661               13.966       
       3031.0021             59.9971               13.857       
       3046.1571             60.0255               13.75        
       3061.3879             60.0522               13.644       
       3076.6949             60.0773               13.539       
       3092.0783             60.2037               13.433       
       3107.5387             60.2269               13.327       
       3123.0764             60.2486               13.221       
       3138.6918              60.269               13.116       
       3154.3853             60.2883               13.012       
       3170.1572             60.3063               12.909       
        3186.008             60.3233               12.807       
        3201.938             60.3392               12.706       
       3217.9477             60.3542               12.606       
       3234.0374             60.3682               12.507       
       3250.2076             60.3813               12.409       
       3266.4587             60.3936               12.311       
        3282.791             60.4051               12.215       
       3299.2049             60.4158               12.119       
       3315.7009             60.4257               12.024       
       3332.2794              60.435               11.93        
       3348.9408             60.4435               11.837       
       3365.6856             60.4514               11.745       
        3382.514             60.5064               11.652       
       3399.4265             60.5134               11.56        
       3416.4237             60.5195               11.468       
       3433.5058             60.5249               11.377       
       3450.6733             60.5295               11.287       
       3467.9267             60.5334               11.198       
       3485.2663             60.5367               11.109       
       3502.6927             60.5393               11.022       
       3520.2061             60.5412               10.935       
       3537.8072             60.5426               10.849       
       3555.4962             60.5434               10.763       
       3573.2737             60.5436               10.678       
        3591.14              60.5432               10.595       
       3609.0957             60.5423               10.512       
       3627.1412             60.5409               10.429       
       3645.2769             60.5389               10.347       
       3663.5033             60.5365               10.267       
       3681.8208             60.5336               10.186       
       3700.2299             60.5303               10.107       
       3718.7311             60.5265               10.028       
       3737.3247             60.5222                9.95        
       3756.0114             60.5175               9.8726       
       3774.7914             60.5343               9.7954       
       3793.6654              60.529               9.7185       
       3812.6337             60.5231               9.6424       
       3831.6969             60.5168               9.5669       
       3850.8554              60.51                9.4921       
       3870.1096             60.5027               9.4179       
       3889.4602              60.495               9.3444       
       3908.9075             60.4869               9.2715       
        3928.452             60.4784               9.1993       
       3948.0943             60.4695               9.1277       
       3967.8347             60.4602               9.0567       
       3987.6739             60.4504               8.9864       
        4055.024             60.7797               8.7546       
        4334.821             60.5462               7.8959       
        4633.924             60.2633               7.1311       
        4953.664             59.9288               6.4492       
        5295.467             59.5306               5.826        
        5660.855             59.0193               5.2446       
        6051.453             58.3326               4.7294       
        6469.004             57.3192               4.2728       
        6915.365             55.3684               3.857        
        7097.944             53.5634               3.7036       
        7206.586             50.5305               3.6172       
        7235.557             46.9937               3.5948       
        7279.014             50.5208               10.455       
        7392.525             53.6385               10.112       
        7771.694             55.2011               9.1507       
        7890.649             54.1336               8.912        
        7902.609             53.7852               8.8889       
        7922.37              52.5006               8.851        
        7969.952             54.3302               12.125       
        8088.906             56.0583               11.824       
        8208.088              56.717               11.537       
        8333.722             56.6681               11.249       
        8367.224             55.9394               11.175       
        8417.478             57.0383               12.806       
        8447.89              57.4719               12.738       
        8543.112             58.3113               12.53        
        9030.794             60.4779               11.524       
        9653.919             61.8945               10.333       
        10320.04              62.775               9.2524       
        11032.12             63.3568               8.2759       
        11793.34             63.7404               7.4018       
        12607.08             63.9922               6.6258       
        13476.97             64.1543               5.9363       
        14406.88             64.2554               5.3231       
        15400.95             64.3753               4.7588       
        16463.62             64.4222               4.2515       
        17599.61             64.4323               3.7894       
        18813.98             64.3823               3.3778       
        20112.15             64.3148               3.0136       
        21499.88             64.2361               2.691        
        22983.38             64.1503               2.4051       
        24569.23             64.0603               2.1515       
        26264.5              63.9699               1.9262       
        28076.76             63.8844               1.7125       
        30014.05              63.778                1.52        
        32085.02             63.6621               1.3491       
        34298.89             63.5343               1.1961       
        36665.51              63.39                1.0592       
        39195.43             63.2174              0.93498       
        41899.92             62.9955              0.82563       
        44791.01             62.6711              0.72944       
        47881.59             62.0283              0.64496       
        49234.32             61.3442              0.61279       
        49987.91             60.1781              0.59596       
        50188.86             58.7811               0.5916       
        50490.3              60.1934               3.3355       
        51185.42             61.4133               3.2652       
        51243.88             61.4695               3.2594       
        54717.21             62.8932               2.9371       
        58492.7              63.4489               2.6343       
        62528.7              63.7699               2.3606       
        66843.18             63.9778               2.1138       
        71455.36             64.1165               1.8907       
        76385.78             64.2109               1.6911       
        81656.4              64.2766               1.5105       
        87290.69             64.3175               1.345        
        93313.74             64.3408               1.1979       
        99752.39             64.3522               1.0669       
        106635.3             64.3832              0.94693       
        113993.1             64.3762              0.84015       
        121858.7              64.364              0.74547       
        130266.9             64.3484              0.66153       
        139255.3             64.3308              0.58709       
        148864.0             64.3119              0.52107       
        159135.6             64.2924              0.46251       
        170115.9             64.2729              0.41057       
        181853.9             64.2535              0.36449       
        194401.8             64.2347               0.3236       
        207815.6             64.2164              0.28733       
        222154.8             64.1988              0.25546       
        237483.5             64.1825              0.22781       
        253869.9             64.1674              0.20316       
        271386.9             64.1534              0.18119       
        290112.6             64.1404              0.16161       
        310130.4             64.1284              0.14415       
        331529.4             64.1173              0.12859       
        354404.9             64.1071              0.11471       
        378858.8             64.0977              0.10234       
        405000.1              64.089              0.091305      
        432945.1              64.081              0.081465      
