# Ge
# Form Factors from Chantler Tables
# DOI: https://dx.doi.org/10.18434/T4HS32
# automatically retrived 2019-02-27 using URL https://physics.nist.gov/cgi-bin/ffast/ffast.pl
#
# Z = 32
# f_rel = -0.17723 e/atom  (Relativistic correction estimate)
# f_NT = -0.0077386 e/atom (Nuclear Thomson correction)


#        E (eV)            f1 (e/atom)          f2 (e/atom)     
         10.69               4.82331                0.0         
        11.42761             4.79856                0.0         
        12.21612              4.7699                0.0         
        13.05903             4.73664                0.0         
        13.9601              4.69793                0.0         
        14.92335             4.65272                0.0         
        15.95306             4.59971                0.0         
        17.05382             4.53719                0.0         
        18.23053             4.46296                0.0         
        19.48844             4.37397                0.0         
        20.83314             4.26589                0.0         
        22.27063              4.132                 0.0         
        23.8073              3.96079                0.0         
        25.45001             3.72818                0.0         
        27.20606             3.35842                0.0         
         28.126              2.99548                0.0         
        28.5565              2.56016                0.0         
        28.6713              2.10442                0.0         
        28.8435              2.50915               0.8603       
        29.08327              2.7398              0.87594       
         29.274              2.82322              0.88848       
        31.09002             2.99292               1.0128       
        33.23523             2.92695               1.1767       
        35.52846              2.7896               1.3852       
        37.97993             2.61993               1.6451       
        40.60054             2.43542               1.9627       
        43.40198             2.24947               2.3438       
        46.39671             2.07531               2.7932       
        49.59809             1.92706               3.3138       
        53.02035             1.81991               3.9058       
        56.67876             1.76967               4.5662       
        60.58959             1.79203               5.2882       
        64.77028             1.90158               6.0612       
        69.23942             2.11068               6.8707       
        74.01695             2.42839               7.6989       
        79.12411             2.85949               8.5256       
        84.58368             3.40364               9.3292       
        90.41995             4.06865               10.088       
        96.65893             4.81459               10.78        
        103.3284             5.63462               11.388       
        110.4581              6.4934               11.896       
        118.0797             7.27992               12.289       
        118.384              7.30144               12.301       
        120.196              7.33901               12.37        
        120.6792             7.19222               12.387       
        121.404              7.46831               12.806       
        123.216              7.83726               12.88        
        125.342              8.13535               12.956       
        126.2272             8.23834               12.985       
        127.2605             8.32672               13.017       
        127.7721             8.30406               13.032       
        128.5395              8.4956               13.234       
        130.458              8.82407               13.292       
        134.9368             9.44533               13.403       
        144.2475             10.5868               13.533       
        154.2005             11.6674               13.55        
        164.8404             12.6665               13.463       
        176.2144             13.4585               13.283       
         176.4               13.4654               13.28        
         179.1               13.4468               13.227       
         179.82              13.2225               13.213       
         180.9               13.5903               13.744       
         183.6               14.0475               13.693       
        188.3732             14.5635               13.597       
        201.3709             15.6526               13.306       
        215.2655              16.612               12.957       
        230.1188             17.4848               12.561       
        245.997              18.2815               12.127       
        262.9708             19.0067               11.665       
        281.1158              19.664               11.182       
        300.5128             20.2567               10.687       
        321.2482              20.788               10.186       
        343.4143             21.2611               9.6827       
        367.1099             21.6795               9.1826       
        392.4405             22.0431               8.6892       
        419.5189             22.3602               8.2053       
        448.4657              22.631               7.7335       
        479.4098             22.8586               7.2755       
        512.4891             23.0456               6.832        
        547.8508             23.1952               6.3846       
        585.6525             23.2789               5.9027       
        626.0625              23.291               5.4478       
        669.2609             23.2338               5.0209       
        715.4399             23.1045               4.6224       
        764.8052             22.8946               4.2519       
        817.5768             22.5869               3.9088       
        873.9896             22.1496               3.5923       
         900.0               22.6092               3.4614       
         904.5               22.5715               3.4396       
        909.0225             22.5327               3.418        
       913.56761             22.4929               3.3965       
       918.13545              22.452               3.3751       
       922.72613              22.41                3.3539       
       927.33976             22.3668               3.3328       
       931.97646             22.3224               3.3119       
       936.63634             22.2768               3.291        
       941.31952             22.2298               3.2704       
       946.02612             22.1816               3.2498       
       950.75625             22.1319               3.2294       
       955.51003             22.0807               3.2092       
       960.28758             22.0281               3.189        
       965.08902             21.9739               3.169        
       969.91446              21.918               3.1491       
       974.76404             21.8603               3.1294       
       979.63786             21.8009               3.1098       
       984.53605             21.7396               3.0903       
       989.45873             21.6763               3.071        
       994.40602             21.6109               3.0517       
       999.37805             21.5433               3.0326       
       1004.3749             21.4902               3.0089       
       1009.3968             21.4294               2.9847       
       1014.4438             21.3624               2.9607       
        1019.516             21.2906               2.9369       
       1024.6136             21.2148               2.9133       
       1029.7367             21.1349                2.89        
       1034.8853              21.051               2.8669       
       1040.0598             20.9631               2.844        
       1045.2601             20.8711               2.8213       
       1050.4864             20.7747               2.7988       
       1055.7388             20.6737               2.7765       
       1061.0175              20.568               2.7544       
       1066.3226             20.4571               2.7326       
       1071.6542             20.3407               2.7109       
       1077.0125             20.2185               2.6894       
       1082.3975             20.0899               2.6681       
       1087.8095             19.9546               2.647        
       1093.2486             19.8118               2.6261       
       1098.7148              19.661               2.6054       
       1104.2084             19.5012               2.5849       
       1109.7294             19.3318               2.5646       
       1115.2781             19.1515               2.5444       
       1120.8545             18.9592               2.5245       
       1126.4587             18.7534               2.5047       
        1132.091             18.5323               2.4851       
       1137.7515             18.2939               2.4656       
       1143.4402             18.0355               2.4464       
       1149.1574              17.754               2.4273       
       1154.9032             17.4452               2.4084       
       1160.6777             17.1038               2.3896       
       1166.4811              16.723               2.3711       
       1172.3135             16.2931               2.3526       
       1178.1751             15.8006               2.3344       
        1184.066             15.2254               2.3163       
       1189.9863             14.5354               2.2984       
       1195.9362             13.6744               2.2806       
       1201.9159             12.5293               2.263        
       1207.9255             10.8065               2.2456       
       1213.9651             7.08105               2.2283       
       1216.5985             -3.13227              2.2208       
       1216.8014             -3.29888              11.907       
        1220.035             7.38606               11.856       
       1226.1351             10.3333               11.76        
       1232.2658             11.4726               11.665       
       1238.4271             11.8269               11.571       
       1244.6193             11.0504               11.478       
       1247.6951             6.23429               11.432       
       1247.9049             6.17858               16.209       
       1250.8424             11.6286               16.147       
       1257.0966             13.9279               16.017       
       1263.3821             15.2259               15.889       
        1269.699              16.191               15.761       
       1276.0475             16.9747               15.634       
       1282.4277             17.6396               15.509       
       1288.8399             18.2185               15.384       
        1295.284             18.7314               15.261       
       1301.7605             19.1913               15.138       
       1308.2693             19.6071               15.016       
       1314.8106             19.9856               14.896       
       1321.3847             20.3315               14.776       
       1327.9916             20.6485               14.658       
       1334.6316             20.9392               14.54        
       1341.3047             21.2057               14.424       
       1348.0112             21.4492               14.308       
       1354.7513             21.6704               14.193       
        1361.525             21.8693               14.079       
       1368.3327             22.0449               13.966       
       1375.1743             22.1951               13.854       
       1382.0502             22.3155               13.743       
       1388.9605             22.3976               13.633       
       1395.9053             22.4237               13.524       
       1402.8848             22.3485               13.416       
       1409.8992             21.9837               13.308       
       1413.0073             21.3436               13.261       
       1415.5926             21.3844               15.085       
       1416.9487             21.8469               15.064       
       1424.0335             22.8052               14.954       
       1431.1536             23.3095               14.845       
       1438.3094             23.6912               14.737       
       1445.5009             24.0122               14.629       
       1452.7284             24.2954               14.523       
       1459.9921             24.5523               14.417       
        1467.292             24.7893               14.313       
       1474.6285             25.0104               14.209       
       1482.0016             25.2184               14.106       
       1489.4117             25.4154               14.003       
       1496.8587             25.6025               13.901       
        1504.343              25.781                13.8        
       1511.8647             25.9517                13.7        
        1519.424             26.1154                13.6        
       1527.0212             26.2728               13.501       
       1534.6563             26.4243               13.403       
       1542.3295             26.5705               13.306       
       1550.0412             26.7116               13.21        
       1557.7914              26.848               13.114       
       1565.5804             26.9801               13.019       
       1573.4083             27.1082               12.924       
       1581.2753             27.2324               12.831       
       1589.1817             27.3529               12.737       
       1597.1276             27.4698               12.644       
       1605.1132             27.5833               12.552       
       1613.1388             27.6935               12.46        
       1621.2045             27.8007               12.369       
       1629.3105             27.9049               12.278       
       1637.4571             28.0062               12.188       
       1645.6443             28.1047               12.099       
       1653.8726             28.2005               12.01        
       1662.1419             28.2938               11.922       
       1670.4526             28.3847               11.835       
       1678.8049             28.4732               11.748       
       1687.1989             28.5594               11.662       
       1695.6349             28.6435               11.576       
       1704.1131             28.7255               11.491       
       1712.6337             28.8055               11.407       
       1721.1968             28.8835               11.324       
       1729.8028             28.9596               11.241       
       1738.4518              29.034               11.158       
       1747.1441             29.1066               11.077       
       1755.8798             29.1775               10.995       
       1764.6592             29.2467               10.915       
       1773.4825             29.3144               10.835       
       1782.3499             29.3806               10.756       
       1791.2617             29.4453               10.677       
        1800.218             29.5085               10.599       
       1809.2191             29.5705               10.521       
       1818.2652             29.6311               10.444       
       1827.3565             29.6905               10.368       
       1836.4933             29.7488               10.292       
       1845.6757             29.8058               10.216       
       1854.9041             29.8613               10.14        
       1864.1786             29.9155               10.065       
       1873.4995             29.9685                9.99        
        1882.867             30.0202               9.9158       
       1892.2814             30.0707               9.8422       
       1901.7428              30.12                9.7691       
       1911.2515             30.1682               9.6966       
       1920.8077             30.2153               9.6245       
       1930.4118             30.2614               9.553        
       1940.0638             30.3064               9.4821       
       1949.7642             30.3504               9.4117       
        1959.513             30.3935               9.3417       
       1969.3105             30.4356               9.2723       
       1979.1571             30.4768               9.2034       
       1989.0529             30.5171               9.1351       
       1998.9981             30.5564               9.0672       
       2008.9931              30.595               8.9998       
       2019.0381             30.6327               8.9329       
       2029.1333             30.6695               8.8666       
        2039.279             30.7056               8.8007       
       2049.4754             30.7409               8.7353       
       2059.7227             30.7755               8.6704       
       2070.0213             30.8093               8.6059       
       2080.3714             30.8423               8.542        
       2090.7733             30.8747               8.4785       
       2101.2272             30.9064               8.4155       
       2111.7333             30.9374               8.3529       
        2122.292             30.9677               8.2909       
       2132.9034             30.9974               8.2293       
        2143.568             31.0265               8.1681       
       2154.2858             31.0549               8.1074       
       2165.0572             31.0828               8.0472       
       2175.8825              31.11                7.9874       
       2186.7619             31.1367               7.9281       
       2197.6957             31.1629               7.8692       
       2208.6842             31.1885               7.8107       
       2219.7276             31.2135               7.7527       
       2230.8263             31.2381               7.6951       
       2241.9804             31.2621               7.638        
       2253.1903             31.2857               7.5813       
       2264.4562             31.3088               7.525        
       2275.7785             31.3314               7.4687       
       2287.1574             31.3535               7.4127       
       2298.5932             31.3752               7.3571       
       2310.0862             31.3964               7.3019       
       2321.6366             31.4172               7.2471       
       2333.2448             31.4375               7.1928       
        2344.911             31.4574               7.1389       
       2356.6356              31.477               7.0854       
       2368.4187             31.4961               7.0323       
       2380.2608             31.5149               6.9796       
       2392.1621             31.5332               6.9273       
        2404.123             31.5513               6.8754       
       2416.1436              31.569               6.8236       
       2428.2243             31.5864               6.7722       
       2440.3654             31.7109               6.7203       
       2452.5672             31.7274               6.6681       
       2464.8301             31.7435               6.6163       
       2477.1542             31.7591               6.565        
        2489.54              31.7742               6.514        
       2501.9877             31.8434               6.463        
       2514.4976             31.8576               6.4121       
       2527.0701             31.8714               6.3615       
       2539.7055             31.8847               6.3114       
        2552.404             31.8976               6.2616       
        2565.166              31.91                6.2123       
       2577.9919             31.9221               6.1634       
       2590.8818             31.9338               6.1148       
       2603.8362             31.9451               6.0666       
       2616.8554             31.9561               6.0189       
       2629.9397             31.9667               5.9715       
       2643.0894              31.977               5.9245       
       2656.3048              31.987               5.8779       
       2669.5863             31.9966               5.8317       
       2682.9343              32.006               5.7858       
       2696.3489             32.0152               5.7403       
       2709.8307              32.024               5.6952       
       2723.3798             32.0326               5.6505       
       2736.9967              32.041               5.6061       
       2750.6817             32.0491               5.5621       
       2764.4351              32.057               5.5185       
       2778.2573             32.0647               5.4752       
       2792.1486             32.0722               5.4323       
       2806.1093             32.0795               5.3897       
       2820.1399             32.0866               5.3475       
       2834.2406             32.1349               5.3054       
       2848.4118             32.1419               5.2633       
       2862.6539             32.1487               5.2215       
       2876.9671             32.1554               5.1801       
        2891.352              32.162               5.139        
       2905.8087             32.1684               5.0983       
       2920.3378             32.1748               5.0579       
       2934.9394             32.1811               5.0179       
       2949.6141             32.1874               4.9781       
       2964.3622             32.1937               4.9388       
        2979.184             32.2002               4.8997       
       2994.0799             32.2068               4.861        
       3009.0503             32.2124               4.8201       
       3024.0956             32.2167               4.7779       
       3039.2161             32.2206               4.7361       
       3054.4122             32.2241               4.6947       
       3069.6842             32.2271               4.6537       
       3085.0326             32.2298               4.6131       
       3100.4578             32.2321               4.5729       
       3115.9601             32.2341               4.533        
       3131.5399             32.2358               4.4935       
       3147.1976             32.2372               4.4543       
       3162.9336             32.2382               4.4155       
       3178.7482              32.239               4.3771       
        3194.642             32.2396               4.3391       
       3210.6152             32.2398               4.3013       
       3226.6683             32.2399               4.264        
       3242.8016             32.2397               4.227        
       3259.0156             32.2393               4.1903       
       3275.3107             32.2386               4.154        
       3291.6873             32.2378               4.118        
       3308.1457             32.2368               4.0823       
       3324.6864             32.2355               4.047        
       3341.3099             32.2341               4.0119       
       3358.0164             32.2325               3.9773       
       3374.8065             32.2308               3.9429       
       3391.6805             32.2288               3.9088       
       3408.6389             32.2268               3.8749       
       3425.6821             32.2245               3.8413       
       3442.8105             32.2221               3.8081       
       3460.0246             32.2196               3.7752       
       3477.3247             32.2169               3.7425       
       3494.7113              32.214               3.7102       
       3512.1849             32.2111               3.6782       
       3529.7458             32.2079               3.6464       
       3547.3945             32.2047               3.615        
       3565.1315             32.2014               3.5838       
       3582.9572             32.1979               3.553        
       3600.8719             32.1943               3.5224       
       3618.8763             32.1906               3.4921       
       3636.9707             32.1868               3.462        
       3655.1555             32.1829               3.4323       
       3673.4313             32.1789               3.4028       
       3691.7985             32.1748               3.3736       
       3710.2575             32.1705               3.3447       
       3728.8088             32.1662               3.316        
       3747.4528             32.1619               3.2876       
       3766.1901             32.1574               3.2594       
        3785.021             32.1528               3.2315       
       3803.9461             32.1482               3.2039       
       3822.9659             32.1435               3.1765       
       3842.0807             32.1387               3.1493       
       3861.2911             32.1338               3.1224       
       3880.5975             32.1288               3.0958       
       3900.0005             32.1238               3.0694       
       3919.5005             32.1187               3.0432       
        3939.098             32.1136               3.0173       
       3958.7935             32.1084               2.9916       
       3978.5875             32.1031               2.9662       
       3998.4804             32.0978               2.9409       
       4018.4728             32.0924               2.9159       
       4038.5652              32.087               2.8912       
        4058.758             32.0815               2.8666       
       4079.0518             32.0759               2.8423       
       4099.4471             32.0703               2.8182       
       4119.9443             32.0647               2.7943       
        4140.544              32.059               2.7707       
       4161.2467             32.0532               2.7472       
        4182.053             32.0475               2.724        
       4202.9632             32.0416               2.701        
       4223.9781             32.0358               2.6781       
        4245.098             32.0299               2.6555       
       4266.3234             32.0239               2.6331       
       4287.6551              32.018               2.6109       
       4309.0933             32.0119               2.5889       
       4330.6388             32.0059               2.5671       
        4352.292             31.9998               2.5455       
       4374.0535             31.9937               2.5241       
       4395.9237             31.9875               2.5029       
       4417.9033             31.9814               2.4818       
       4439.9929             31.9752               2.461        
       4462.1928             31.9689               2.4404       
       4484.5038             31.9627               2.4199       
       4506.9263             31.9564               2.3996       
       4529.4609             31.9501               2.3795       
       4552.1082             31.9438               2.3596       
       4574.8688             31.9374               2.3399       
       4597.7431             31.9311               2.3203       
       4620.7318             31.9247               2.3009       
       4643.8355             31.9183               2.2817       
       4667.0547             31.9118               2.2627       
        4690.39              31.9054               2.2438       
       4713.8419             31.8989               2.2251       
       4737.4111             31.8925               2.2066       
       4761.0982              31.886               2.1882       
       4784.9037             31.8795                2.17        
       4808.8282              31.873               2.152        
       4832.8723             31.8664               2.1341       
       4857.0367             31.8599               2.1164       
       4881.3219             31.8533               2.0988       
       4905.7285             31.8468               2.0814       
       4930.2571             31.8402               2.0641       
       4954.9084             31.8337               2.0471       
       4979.6829             31.8271               2.0301       
       5004.5814             31.8205               2.0133       
       5029.6043             31.8139               1.9967       
       5054.7523             31.8073               1.9802       
        5080.026             31.8007               1.9638       
       5105.4262             31.7941               1.9476       
       5130.9533             31.7875               1.9316       
       5156.6081             31.7809               1.9157       
       5182.3911             31.7743               1.8999       
       5208.3031             31.7677               1.8843       
       5234.3446             31.7612               1.8688       
       5260.5163             31.7546               1.8534       
       5286.8189              31.748               1.8379       
        5313.253             31.7414               1.8221       
       5339.8192             31.7348               1.8066       
       5366.5183             31.7281               1.7911       
       5393.3509             31.7214               1.7759       
       5420.3177             31.7146               1.7606       
       5447.4193             31.7078               1.7453       
       5474.6564              31.701               1.7301       
       5502.0297             31.6941               1.7151       
       5529.5398             31.6871               1.7002       
       5557.1875             31.6801               1.6855       
       5584.9734             31.6731               1.6709       
       5612.8983              31.666               1.6564       
       5640.9628             31.6588               1.6421       
       5669.1676             31.6517               1.6279       
       5697.5135             31.6445               1.6139       
        5726.001             31.6372                1.6         
        5754.631              31.63                1.5862       
       5783.4042             31.6227               1.5725       
       5812.3212             31.6153               1.559        
       5841.3828              31.608               1.5456       
       5870.5897             31.6006               1.5323       
       5899.9427             31.5932               1.5192       
       5929.4424             31.5857               1.5062       
       5959.0896             31.5783               1.4933       
        5988.885             31.5708               1.4805       
       6018.8295             31.5633               1.4679       
       6048.9236             31.5557               1.4553       
       6079.1682             31.5482               1.4429       
       6109.5641             31.5406               1.4306       
       6140.1119              31.533               1.4182       
       6170.8125             31.5254               1.4056       
       6201.6665             31.5177               1.3931       
       6232.6749              31.51                1.3807       
       6263.8382             31.5022               1.3684       
       6295.1574             31.4943               1.3562       
       6326.6332             31.4863               1.3442       
       6358.2664             31.4784               1.3322       
       6390.0577             31.4703               1.3204       
        6422.008             31.4622               1.3087       
        6454.118              31.454               1.2971       
       6486.3886             31.4458               1.2856       
       6518.8206             31.4375               1.2742       
       6551.4147             31.4292               1.263        
       6584.1717             31.4208               1.2518       
        6915.365             31.3523               1.1474       
        7392.525             31.2238               1.0201       
        7902.609             31.0798              0.90777       
        8447.89              30.9116              0.80862       
        9030.794             30.7014              0.71829       
        9653.919             30.3972              0.63015       
        10320.04             29.8588              0.55335       
        10881.04              28.674              0.49947       
        11032.12             27.5223              0.48636       
        11047.58             27.2677              0.48505       
        11092.0              25.5686              0.48132       
        11158.62             27.3085               3.8275       
        11325.16             28.8815               3.7099       
        11793.34             30.1773               3.4186       
        12607.08              31.021               3.0517       
        13476.97             31.4728               2.7472       
        14406.88              31.775               2.4811       
        15400.95             31.9885               2.2215       
        16463.62             32.1337               1.985        
        17599.61             32.2331               1.7706       
        18813.98             32.2995               1.5776       
        20112.15              32.342               1.405        
        21499.88             32.3676               1.2513       
        22983.38             32.4172               1.1127       
        24569.23             32.4194              0.98771       
        26264.5              32.4148              0.87684       
        28076.76              32.406              0.77457       
        30014.05              32.391               0.6832       
        32085.02             32.3726              0.60227       
        34298.89             32.3523              0.53094       
        36665.51              32.331              0.46809       
        39195.43             32.3095              0.41271       
        41899.92             32.2884               0.3639       
        44791.01             32.2679              0.32088       
        47881.59             32.2485              0.28296       
        51185.42             32.2299              0.24813       
        54717.21             32.2116               0.2175       
        58492.7              32.1942              0.19066       
        62528.7              32.1777              0.16714       
        66843.18             32.1623              0.14652       
        71455.36             32.1479              0.12846       
        76385.78             32.1347              0.11262       
        81656.4              32.1226              0.098633      
        87290.69             32.1112              0.08617       
        93313.74             32.1007              0.075285      
        99752.39             32.0911              0.065777      
        106635.3             32.0822              0.057472      
        113993.1             32.0741              0.050218      
        121858.7             32.0668              0.043881      
        130266.9             32.0601              0.038345      
        139255.3              32.054              0.033509      
        148864.0             32.0485              0.029283      
        159135.6             32.0436              0.025591      
        170115.9             32.0391              0.022366      
        181853.9              32.035              0.019548      
        194401.8             32.0314              0.017085      
        207815.6             32.0281              0.014933      
        222154.8             32.0251              0.013053      
        237483.5             32.0225              0.011409      
        253869.9             32.0201             0.0099731      
        271386.9             32.0179              0.008718      
        290112.6              32.016             0.0076211      
        310130.4             32.0143             0.0066625      
        331529.4             32.0128             0.0058245      
        354404.9             32.0114             0.0050922      
        378858.8             32.0101              0.004452      
        405000.1              32.009             0.0038924      
        432945.1              32.008             0.0034033      
