# Hf
# Form Factors from Chantler Tables
# DOI: https://dx.doi.org/10.18434/T4HS32
# automatically retrived 2019-02-28 using URL https://physics.nist.gov/cgi-bin/ffast/ffast.pl

# For f_rel the second term, which is 3/5th of the Cromer-Liberman value, is used as suggested by Chantler.
# Real and imaginary part of the formfactors are: f'(E)=f1(E)+f_rel+f_NT and f''(E)=f2(E)
# see also original publication:  https://doi.org/10.1063/1.555974

# Z = 72
# f_rel = -0.8028 e/atom  (Relativistic correction estimate)
# f_NT = -0.015933 e/atom (Nuclear Thomson correction)


#        E (eV)            f1 (e/atom)          f2 (e/atom)     
          4.9                8.07421                0.0         
         4.975               7.62222                0.0         
         4.995               7.09825                0.0         
         5.025               7.62497               1.0218       
          5.1                8.07584               1.0141       
         10.69               8.92457               1.9327       
        11.42761             9.03059               2.0717       
        12.21612             9.15381               2.1926       
        13.05903             9.28691               2.2883       
        13.9601              9.41862               2.353        
        14.92335             9.53125               2.3829       
        15.95306             9.60064               2.3763       
         16.758              9.50328               2.3483       
        17.0145              9.28984               2.3358       
        17.05382             9.18348               2.3338       
        17.0829              9.00587               2.3322       
        17.1855               9.325                2.9002       
         17.442               9.6179               2.8639       
        18.23053             9.90396               2.7511       
        19.48844             10.0524               2.5735       
        20.83314             10.0556               2.4055       
        22.27063             9.94564               2.2437       
        23.8073              9.70585               2.0894       
        25.45001              9.2852               1.9469       
        27.20606             8.54989               1.8213       
        29.08327             6.97692               1.7179       
         29.988              5.07695               1.6794       
         30.447              2.01609               1.6625       
        30.5694              -1.66293              1.6584       
         30.753              2.20774               8.898        
        31.09002             5.03434               8.7271       
         31.212               5.5809               8.6669       
        33.23523             9.04873               7.7757       
        35.52846             10.0316               6.9188       
         37.338              9.46532               6.2957       
        37.9095              8.11001               6.1146       
        37.97993             7.61463               6.0929       
        38.0619              6.34795               6.0677       
        38.2905              8.26411               9.5352       
         38.862              10.0071               9.3044       
        40.60054             11.6878               8.6704       
        43.40198             12.7823               7.8368       
        46.39671             13.2949               7.0954       
        49.59809             13.4529               6.4926       
        53.02035             13.3571               6.068        
        56.67876             13.1397               5.8379       
        60.58959             12.8444               5.8027       
         63.602              12.6033               5.8945       
        64.5755              12.5128               5.9426       
        64.77028              12.485               5.9533       
        64.8351              12.4699               5.9569       
        65.2245              12.4674               6.0278       
         66.198              12.4235               6.0902       
        69.23942             12.2607               6.3289       
        74.01695             12.0617               6.7968       
        79.12411             11.9422               7.3742       
        84.58368             11.9154               8.0377       
        90.41995             11.9887               8.7649       
        96.65893              12.171               9.5362       
         100.0               14.0652               9.9402       
         100.5               14.0864               9.9998       
        101.0025             14.1083               10.06        
       101.50751             14.1307               10.119       
       102.01505             14.1537               10.179       
       102.52513             14.1773               10.239       
       103.03775             14.2014               10.299       
       103.55294              14.226               10.359       
        104.0707             14.2512               10.419       
       104.59106              14.277               10.479       
       105.11401             14.3033               10.539       
       105.63958             14.3301               10.599       
       106.16778             14.3575               10.659       
       106.69862             14.3854               10.719       
       107.23211             14.4139               10.779       
       107.76827             14.4429               10.84        
       108.30712             14.4724                10.9        
       108.84865             14.5025               10.96        
       109.39289              14.533               11.02        
       109.93986             14.5641               11.08        
       110.48956             14.5958               11.139       
       111.04201             14.6279               11.199       
       111.59722             14.6605               11.259       
        112.1552             14.6936               11.319       
       112.71598             14.7273               11.379       
       113.27956             14.7614               11.438       
       113.84596              14.796               11.498       
       114.41519             14.8312               11.557       
       114.98726             14.8668               11.617       
        115.5622             14.9029               11.676       
       116.14001             14.9394               11.735       
       116.72071             14.9765               11.794       
       117.30431              15.014               11.853       
       117.89083              15.052               11.912       
       118.48029             15.0904               11.971       
       119.07269             15.1293               12.03        
       119.66805             15.1687               12.088       
       120.26639             15.2085               12.147       
       120.86772             15.2488               12.205       
       121.47206             15.2895               12.263       
       122.07942             15.3306               12.321       
       122.68982             15.3722               12.379       
       123.30327             15.4142               12.437       
       123.91979             15.4566               12.495       
       124.53939             15.4994               12.552       
       125.16208             15.5427               12.609       
       125.78789             15.5863               12.667       
       126.41683             15.6304               12.724       
       127.04892             15.6748               12.78        
       127.68416             15.7197               12.837       
       128.32258             15.7649               12.894       
       128.96419             15.8106               12.95        
       129.60902             15.8566               13.006       
       130.25706              15.903               13.062       
       130.90835             15.9497               13.118       
       131.56289             15.9968               13.173       
        132.2207             16.0443               13.229       
       132.88181             16.0921               13.284       
       133.54621             16.1403               13.339       
       134.21395             16.1888               13.394       
       134.88502             16.2377               13.448       
       135.55944             16.2869               13.503       
       136.23724             16.3364               13.557       
       136.91842             16.3862               13.611       
       137.60302             16.4364               13.665       
       138.29103             16.4868               13.718       
       138.98249             16.5376               13.772       
        139.6774             16.5886               13.825       
       140.37579              16.64                13.878       
       141.07766             16.6916               13.93        
       141.78305             16.7435               13.983       
       142.49197             16.7957               14.035       
       143.20443             16.8482               14.087       
       143.92045             16.9009               14.139       
       144.64005             16.9538               14.191       
       145.36325              17.007               14.242       
       146.09007             17.0605               14.293       
       146.82052             17.1142               14.344       
       147.55462             17.1681               14.395       
       148.29239             17.2222               14.445       
       149.03386             17.2765               14.495       
       149.77903             17.3311               14.545       
       150.52792             17.3858               14.595       
       151.28056             17.4407               14.644       
       152.03696             17.4958               14.694       
       152.79715             17.5511               14.743       
       153.56113             17.6066               14.791       
       154.32894             17.6622               14.84        
       155.10058             17.7179               14.888       
       155.87609             17.7738               14.936       
       156.65547             17.8298               14.984       
       157.43875             17.8859               15.032       
       158.22594             17.9422               15.079       
       159.01707             17.9985               15.126       
       159.81215              18.055               15.173       
       160.61121             18.1115               15.22        
       161.41427             18.1681               15.266       
       162.22134             18.2247               15.312       
       163.03245             18.2814               15.358       
       163.84761             18.3382               15.404       
       164.66685             18.3949               15.449       
       165.49018             18.4517               15.494       
       166.31763             18.5085               15.539       
       167.14922             18.5652               15.584       
       167.98497             18.6219               15.628       
       168.82489             18.6786               15.672       
       169.66902             18.7352               15.716       
       170.51736             18.7917               15.76        
       171.36995             18.8481               15.803       
        172.2268             18.9044               15.847       
       173.08793             18.9605               15.89        
       173.95337             19.0165               15.932       
       174.82314             19.0723               15.975       
       175.69726             19.1279               16.017       
       176.57574             19.1832               16.059       
       177.45862             19.2383               16.101       
       178.34591              19.293               16.143       
       179.23764             19.3475               16.184       
       180.13383             19.4015               16.225       
        181.0345             19.4552               16.266       
       181.93967             19.5084               16.307       
       182.84937             19.5611               16.347       
       183.76362             19.6133               16.387       
       184.68244             19.6649               16.427       
       185.60585             19.7158               16.467       
       186.53388             19.7659               16.506       
       187.46655             19.8153               16.546       
       188.40388             19.8638               16.585       
        189.3459             19.9113               16.624       
       190.29263             19.9577               16.662       
       191.24409              20.003               16.701       
       192.20031             20.0469               16.739       
       193.16131             20.0893               16.777       
       194.12712              20.13                16.815       
       195.09776              20.171               16.852       
       196.07325             20.2078               16.89        
       197.05361             20.2422               16.927       
       198.03888             20.2739               16.964       
       199.02907             20.3025               17.001       
       200.02422             20.3275               17.037       
       201.02434             20.3483               17.074       
       202.02946             20.3642               17.11        
       203.03961             20.3743               17.146       
       204.05481             20.3772               17.182       
       205.07508             20.3713               17.217       
       206.10046             20.3544               17.253       
       207.13096             20.3232               17.288       
       208.16661             20.2725               17.323       
       209.20745             20.1942               17.358       
       210.25348             20.0733               17.392       
       211.30475             19.8782               17.427       
       212.36128             19.5191               17.461       
       213.42308             18.4033               17.495       
       213.54015             17.9915               17.499       
       213.85984             18.0336               19.932       
        214.4902             19.3322               19.917       
       215.56265             20.0728               19.891       
       216.64046             20.4815               19.868       
       217.72366             20.7598               19.845       
       218.81228             20.9582               19.824       
       219.90634             21.0913               19.803       
       221.00588             21.1533               19.784       
        222.1109             21.1048               19.766       
       223.22146             20.7351               19.75        
       223.61559             20.1824               19.744       
       223.98441             20.2635               21.474       
       224.33757             20.9271               21.455       
       225.45925             21.7506               21.396       
       226.58655             22.2159               21.339       
       227.71948             22.5684               21.284       
       228.85808             22.8618               21.231       
       230.00237             23.1173               21.18        
       231.15238             23.3457               21.131       
       232.30814             23.5535               21.084       
       233.46969             23.7447               21.039       
       234.63703             23.9221               20.995       
       235.81022             24.0876               20.954       
       236.98927             24.2428               20.915       
       238.17422             24.3895               20.879       
       239.36509             24.5288               20.846       
       240.56191             24.6618               20.816       
       241.76472             24.7893               20.788       
       242.97355             24.9118               20.762       
       244.18841             25.0299               20.739       
       245.40936              25.144               20.718       
        246.6364             25.2543               20.699       
       247.86959             25.3612               20.682       
       249.10893             25.4652               20.668       
       250.35448             25.5668               20.657       
       251.60625             25.6664               20.648       
       252.86428             25.7644               20.642       
        254.1286             25.8609               20.637       
       255.39925             25.9563               20.635       
       256.67624             26.0507               20.635       
       257.95962             26.1443               20.636       
       259.24942             26.2373               20.639       
       260.54567             26.3297               20.644       
        261.8484             26.4216               20.65        
       263.15764             26.5133               20.658       
       264.47343             26.6048               20.667       
       265.79579             26.6961               20.678       
       267.12477             26.7874               20.69        
        268.4604             26.8787               20.703       
        269.8027             26.9702               20.717       
       271.15171             27.0617               20.732       
       272.50747             27.1535               20.748       
       273.87001             27.2455               20.766       
       275.23936             27.3379               20.784       
       276.61556             27.4306               20.803       
       277.99863             27.5237               20.823       
       279.38863             27.6173               20.845       
       280.78557             27.7114               20.866       
        282.1895              27.806               20.889       
       283.60044             27.9012               20.913       
       285.01845              27.997               20.937       
       286.44354             28.0934               20.962       
       287.87576             28.1962               20.979       
       289.31514             28.3021               20.99        
       290.76171              28.408               21.003       
       292.21552              28.514               21.016       
        293.6766              28.62                21.029       
       295.14498             28.7262               21.043       
       296.62071             28.8325               21.057       
       298.10381             28.9391               21.072       
       299.59433              29.046               21.087       
        301.0923             29.1532               21.102       
       302.59776             29.2608               21.118       
       304.11075             29.3689               21.135       
        305.6313             29.4773               21.152       
       307.15946             29.5883               21.161       
       308.69526             29.7002               21.167       
       310.23873             29.8122               21.173       
       311.78993             29.9243               21.179       
       313.34888             30.0365               21.186       
       314.91562              30.149               21.193       
        316.4902             30.2617                21.2        
       318.07265             30.3746               21.207       
       319.66301             30.4878               21.215       
       321.26133             30.6016               21.216       
       322.86764             30.7163               21.163       
       324.48197             30.8286               21.109       
       326.10438             30.9386               21.056       
       327.73491             31.0463               21.003       
       329.37358             31.1517               20.949       
       331.02045             31.2549               20.896       
       332.67555             31.3558               20.843       
       334.33893             31.4544               20.79        
       336.01062             31.5508               20.737       
       337.69068              31.645               20.684       
       339.37913             31.7368               20.631       
       341.07602             31.8263               20.578       
        342.7814             31.9135               20.525       
       344.49531             31.9982               20.472       
       346.21779             32.0804               20.42        
       347.94888              32.16                20.367       
       349.68862             32.2369               20.315       
       351.43706             32.3109               20.262       
       353.19425             32.3819               20.21        
       354.96022             32.4497               20.158       
       356.73502              32.514               20.106       
        358.5187             32.5744               20.054       
       360.31129             32.6305               20.002       
       362.11285             32.6818               19.951       
       363.92341             32.7275               19.899       
       365.74303             32.7665               19.848       
       367.57174             32.7974               19.796       
        369.4096             32.8179               19.745       
       371.25665             32.8248               19.694       
       373.11293             32.8122               19.644       
        374.9785             32.7692               19.593       
       376.85339             32.6703               19.543       
       378.73766             32.4286               19.492       
        379.9207             31.9507               19.461       
       380.63135             31.6709               20.771       
       380.87931             31.9886               20.765       
        382.5345             32.6859               20.724       
       384.44718             33.0324               20.678       
       386.36941             33.2722               20.632       
       388.30126             33.4656               20.587       
       390.24276             33.6327               20.541       
       392.19398             33.7826               20.496       
       394.15495             33.9203               20.451       
       396.12572             34.0487               20.406       
       398.10635             34.1698               20.361       
       400.09688             34.2848               20.317       
       402.09737             34.3947               20.273       
       404.10785             34.5002               20.228       
       406.12839             34.6018               20.185       
       408.15904             34.6998               20.141       
       410.19983             34.7946               20.097       
       412.25083             34.8862               20.054       
       414.31208             34.9748               20.011       
       416.38364             35.0605               19.968       
       418.46556             35.1431               19.925       
       420.55789             35.2226               19.883       
       422.66068             35.2986               19.841       
       424.77398             35.3706               19.799       
       426.89785             35.4378               19.757       
       429.03234             35.4985               19.715       
        431.1775             35.5496               19.673       
       433.33339             35.5832               19.632       
       435.50006             35.5686               19.591       
        436.3751             35.5062               19.574       
       437.62492             35.5521               19.892       
       437.67756             35.5628               19.891       
       439.86595             35.7992               19.851       
       442.06528             35.9405               19.812       
        444.2756             36.0587               19.774       
       446.49698             36.1657               19.735       
       448.72947              36.266               19.696       
       450.97311             36.3617               19.658       
       453.22798             36.4539               19.62        
       455.49412             36.5433               19.582       
       457.77159             36.6305               19.544       
       460.06045             36.7157               19.506       
       462.36075             36.7992               19.469       
       464.67255             36.8811               19.431       
       466.99592             36.9617               19.394       
        469.3309             37.0409               19.357       
       471.67755              37.119               19.32        
       474.03594             37.1959               19.283       
       476.40612             37.2717               19.246       
       478.78815             37.3465               19.209       
       481.18209             37.4203               19.173       
        483.588               37.493               19.136       
       486.00594             37.5648                19.1        
       488.43597             37.6356               19.063       
       490.87815             37.7053               19.027       
       493.33254              37.774               18.991       
        495.7992             37.8417               18.955       
        498.2782             37.9082               18.919       
       500.76959             37.9735               18.883       
       503.27344             38.0376               18.847       
        505.7898             38.1004               18.811       
       508.31875             38.1616               18.776       
       510.86035             38.2211               18.74        
       513.41465             38.2786               18.704       
       515.98172             38.3339               18.668       
       518.56163             38.3864               18.633       
       521.15444             38.4355               18.597       
       523.76021             38.4801               18.561       
       526.37901             38.5185               18.526       
       529.01091             38.5477               18.49        
       531.65596             38.5615               18.455       
       534.31424             38.5434               18.419       
       536.98581              38.409               18.383       
       537.24443             38.3715               18.38        
       538.95558             38.4161               18.884       
       539.67074             38.5364               18.874       
        542.3691             38.7738               18.839       
       545.08094             38.9261               18.805       
       547.80635             39.0511               18.77        
       550.54538             39.1623               18.735       
        553.2981             39.2652                18.7        
        556.0646             39.3625               18.665       
       558.84492             39.4556               18.63        
       561.63914             39.5456               18.595       
       564.44734             39.6331               18.56        
       567.26958             39.7186               18.524       
       570.10592             39.8024               18.489       
       572.95645             39.8847               18.454       
       575.82123             39.9658               18.418       
       578.70034             40.0457               18.382       
       581.59384             40.1247               18.347       
       584.50181             40.2027               18.311       
       587.42432              40.28                18.275       
       590.36144             40.3565               18.239       
       593.31325             40.4323               18.202       
       596.27982             40.5074               18.166       
       599.26122              40.582               18.13        
       602.25752              40.656               18.093       
       605.26881             40.7295               18.056       
       608.29515             40.8024               18.019       
       611.33663             40.8749               17.982       
       614.39331             40.9468               17.945       
       617.46528             41.0183               17.907       
        620.5526             41.0893               17.87        
       623.65537             41.1599               17.832       
       626.77364             41.2301               17.794       
       629.90751             41.2999               17.756       
       633.05705             41.3692               17.718       
       636.22234             41.4381               17.679       
       639.40345             41.5066               17.641       
       642.60046             41.5614               17.602       
       645.81347              41.629               17.563       
       649.04253             41.6963               17.524       
       652.28775             41.7632               17.484       
       655.54919             41.8297               17.445       
       658.82693             41.8958               17.405       
       662.12107             41.9616               17.365       
       665.43167             42.0269               17.325       
       668.75883             42.0919               17.285       
       672.10262             42.1505               17.244       
       675.46314             42.2147               17.204       
       678.84045             42.2786               17.163       
       682.23466             42.3421               17.122       
       685.64583             42.4052               17.08        
       689.07406              42.468               17.039       
       692.51943             42.5303               16.997       
       695.98202             42.5923               16.956       
       699.46194              42.654               16.913       
       702.95924             42.7152               16.871       
       706.47404             42.7761               16.829       
       710.00641             42.8366               16.786       
       713.55644             42.8967               16.744       
       717.12423             42.9565               16.701       
       720.70985             43.0159               16.657       
        724.3134             43.0749               16.614       
       727.93496             43.1336               16.571       
       731.57464             43.1919               16.527       
       735.23251             43.2499               16.483       
       738.90867             43.3075               16.439       
       742.60322             43.3646               16.394       
       746.31623             43.4214               16.349       
       750.04781             43.4776               16.304       
       753.79805             43.5335               16.259       
       757.56704             43.5889               16.213       
       761.35488              43.644               16.168       
       765.16165             43.6985               16.122       
       768.98746             43.7527               16.076       
        772.8324             43.8064               16.03        
       776.69656             43.8597               15.983       
       780.58004             43.9126               15.937       
       784.48294             43.9651               15.89        
       788.40536             44.0172               15.843       
       792.34738             44.0688               15.796       
       796.30912              44.12                15.749       
       800.29067             44.1708               15.702       
       804.29212             44.2213               15.655       
       808.31358             44.2713               15.607       
       812.35515             44.3209               15.559       
       816.41693             44.3701               15.511       
       820.49901             44.4189               15.463       
        824.6015             44.4674               15.415       
       828.72451             44.5154               15.367       
       832.86813             44.5631               15.319       
       837.03248             44.6105               15.27        
       841.21764             44.6575               15.221       
       845.42373             44.7041               15.173       
       849.65084             44.7504               15.124       
        853.8991             44.7964               15.075       
       858.16859             44.8421               15.026       
       862.45944             44.8875               14.976       
       866.77173             44.9327               14.927       
       871.10559             44.9776               14.877       
       875.46112             45.0222               14.828       
       879.83843             45.0666               14.778       
       884.23762             45.1108               14.728       
       888.65881             45.1549               14.678       
        893.1021             45.1988               14.628       
       897.56761             45.2426               14.578       
       902.05545             45.2863               14.528       
       906.56573             45.3301               14.477       
       911.09856             45.3739               14.427       
       915.65405             45.4177               14.376       
       920.23232             45.4617               14.325       
       924.83348             45.5058               14.275       
       929.45765             45.5503               14.224       
       934.10494             45.5951               14.173       
       938.77546             45.6404               14.122       
       943.46934             45.6864               14.071       
       948.18668             45.7333               14.02        
       952.92762             45.7811               13.969       
       957.69226             45.8301               13.919       
       962.48072             45.8807               13.868       
       967.29312              45.933               13.817       
       972.12959             45.9876               13.767       
       976.99023             46.0449               13.716       
       981.87519             46.1055               13.666       
       986.78456             46.1702               13.616       
       991.71848             46.2401               13.566       
       996.67708             46.3166               13.516       
       1001.6605              46.374               13.453       
       1006.6688             46.3772               13.365       
       1011.7021             46.3782               13.277       
       1016.7606             46.3771               13.191       
       1021.8444             46.3742               13.105       
       1026.9536             46.3696               13.02        
       1032.0884             46.3632               12.935       
       1037.2489             46.3551               12.851       
       1042.4351             46.3454               12.768       
       1047.6473             46.3341               12.686       
       1052.8855             46.3212               12.604       
       1058.1499             46.3067               12.523       
       1063.4407             46.2907               12.443       
       1068.7579             46.2731               12.364       
       1074.1017             46.2539               12.285       
       1079.4722             46.2332               12.206       
       1084.8695             46.2109               12.129       
       1090.2939             46.1871               12.052       
       1095.7454             46.1617               11.976       
       1101.2241             46.1347                11.9        
       1106.7302             46.1062               11.825       
       1112.2639              46.076               11.751       
       1117.8252             46.0443               11.677       
       1123.4143              46.011               11.604       
       1129.0314              45.976               11.531       
       1134.6765             45.9394               11.459       
       1140.3499             45.9011               11.388       
       1146.0517             45.8595               11.317       
       1151.7819             45.8179               11.247       
       1157.5408             45.7745               11.177       
       1163.3285             45.7294               11.108       
       1169.1452             45.6825               11.04        
       1174.9909             45.6339               10.972       
       1180.8659             45.5833               10.905       
       1186.7702             45.5309               10.838       
        1192.704             45.4766               10.772       
       1198.6676             45.4203               10.706       
       1204.6609              45.362               10.641       
       1210.6842             45.3017               10.576       
       1216.7376             45.2393               10.512       
       1222.8213             45.1747               10.449       
       1228.9354              45.108               10.386       
       1235.0801              45.039               10.323       
       1241.2555             44.9677               10.261       
       1247.4618              44.894               10.199       
       1253.6991             44.8179               10.138       
       1259.9676             44.7392               10.078       
       1266.2674             44.6579               10.017       
       1272.5988              44.574               9.9578       
       1278.9618             44.4873               9.8986       
       1285.3566             44.3977               9.8399       
       1291.7833             44.3052               9.7817       
       1298.2423             44.2095               9.7239       
       1304.7335             44.1107               9.6666       
       1311.2571             44.0095               9.6098       
       1317.8134              43.904               9.5534       
       1324.4025             43.7949               9.4974       
       1331.0245             43.6821               9.4419       
       1337.6796             43.5654               9.3869       
        1344.368             43.4447               9.3322       
       1351.0899             43.3197               9.278        
       1357.8453             43.1903               9.2242       
       1364.6345             43.0563               9.1709       
       1371.4577             42.9174               9.118        
        1378.315             42.7733               9.0654       
       1385.2066             42.6239               9.0133       
       1392.1326             42.4689               8.9616       
       1399.0933             42.3078               8.9103       
       1406.0887             42.1404               8.8594       
       1413.1192             41.9663               8.8089       
       1420.1848             41.7852               8.7588       
       1427.2857             41.5964               8.7091       
       1434.4221             41.3996               8.6597       
       1441.5942             41.1943               8.6108       
       1448.8022             40.9797               8.5622       
       1456.0462             40.7553               8.514        
       1463.3265             40.5203               8.4662       
       1470.6431             40.2739               8.4187       
       1477.9963             40.0152               8.3716       
       1485.3863             39.7431               8.3249       
       1492.8132             39.4564               8.2785       
       1500.2773             39.1538               8.2325       
       1507.7787             38.8338               8.1868       
       1515.3176             38.4945               8.1415       
       1522.8942             38.1339               8.0962       
       1530.5086             37.7496                8.05        
       1538.1612             37.3385               8.0041       
        1545.852             36.8973               7.9586       
       1553.5812             36.4219               7.9134       
       1561.3491             35.9073               7.8686       
       1569.1559             35.3473               7.8241       
       1577.0017              34.734                7.78        
       1584.8867             34.0573               7.7362       
       1592.8111             33.3039               7.6927       
       1600.7752             32.4556               7.6496       
        1608.779             31.4868               7.6067       
       1616.8229             30.3613               7.5643       
        1624.907             29.0148               7.5221       
       1633.0316             27.3439               7.4802       
       1641.1967              25.138               7.4387       
       1649.4027             21.8562               7.3975       
       1657.6497             14.9802               7.3566       
       1661.4142            -0.922329              7.3381       
       1661.9858             -1.24775              26.04        
        1665.938             14.6692               25.949       
       1674.2677             20.6909               25.759       
        1682.639              23.087               25.57        
       1691.0522             24.1856               25.383       
       1699.5075             24.3088               25.198       
        1708.005             22.9893               25.014       
       1715.8508             13.4871               24.846       
        1716.545             8.18242               37.092       
       1716.9493             13.4382               37.079       
       1725.1278             25.2606               36.816       
       1733.7534             28.8729               36.543       
       1742.4222             31.2774               36.272       
       1751.1343             33.1437               36.002       
       1759.8899             34.6916               35.734       
       1768.6894             36.0234               35.468       
       1777.5328             37.1964               35.204       
       1786.4205             38.2463               34.943       
       1795.3526             39.1971               34.683       
       1804.3294              40.066               34.425       
        1813.351             40.8655               34.169       
       1822.4178             41.6053               33.916       
       1831.5299             42.2928               33.664       
       1840.6875             42.9342               33.414       
       1849.8909             43.5342               33.166       
       1859.1404             44.0969               32.92        
       1868.4361             44.6256               32.676       
       1877.7783              45.123               32.434       
       1887.1672             45.5915               32.194       
        1896.603              46.033               31.956       
        1906.086             46.4492               31.719       
       1915.6165             46.8414               31.485       
       1925.1945             47.2106               31.252       
       1934.8205             47.5578               31.021       
       1944.4946             47.8837               30.792       
       1954.2171             48.1885               30.564       
       1963.9882             48.4726               30.339       
       1973.8081             48.7359               30.115       
       1983.6772             48.9779               29.892       
       1993.5955              49.198               29.672       
       2003.5635             49.3949               29.453       
       2013.5813             49.5668               29.236       
       2023.6492             49.7109               29.021       
       2033.7675             49.8232               28.807       
       2043.9363             49.8973               28.595       
        2054.156             49.9234               28.385       
       2064.4268             49.8846               28.176       
       2074.7489             49.7497               27.969       
       2085.1227              49.45                27.763       
       2095.5483             48.7803               27.559       
       2105.2605             46.5603               27.372       
        2106.026             45.9823               27.357       
       2109.9394              46.61                32.023       
       2116.5562             48.8117               31.865       
       2127.1389             50.2415               31.616       
       2137.7746              51.131               31.369       
       2148.4635             51.8076               31.124       
       2159.2058             52.3662               30.88        
       2170.0018             52.8464               30.634       
       2180.8519             53.2687               30.39        
       2191.7561             53.6453               30.147       
       2202.7149             53.9832               29.907       
       2213.7285             54.2854               29.672       
       2224.7971             54.5633               29.456       
       2235.9211             54.8228               29.241       
       2247.1007             55.0631               29.027       
       2258.3362             55.2843               28.816       
       2269.6279             55.4865               28.607       
        2280.976             55.6691               28.401       
       2292.3809             55.8303               28.197       
       2303.8428             55.9673               27.995       
        2315.362             56.0743               27.796       
       2326.9388             56.1405               27.599       
       2338.5735             56.1421               27.404       
       2350.2664             56.0115               27.211       
       2362.0177             55.3232               27.02        
       2362.5852             55.2231               27.011       
       2368.2149             55.2961               28.804       
       2373.8278             56.0536               28.704       
        2385.697              56.776               28.494       
       2397.6254              57.236               28.286       
       2409.6136             57.5983               28.08        
       2421.6616             57.9062               27.876       
       2433.7699             58.1776               27.674       
       2445.9388             58.4214               27.474       
       2458.1685             58.6426               27.276       
       2470.4593             58.8438               27.079       
       2482.8116             59.0255               26.886       
       2495.2257             59.1919               26.704       
       2507.7018             59.3466               26.526       
       2520.2403             59.4879               26.349       
       2532.8415              59.614               26.175       
       2545.5057             59.7214               26.002       
       2558.2333             59.8036               25.832       
       2571.0244             59.8462               25.663       
       2583.8796             59.8088               25.496       
       2595.7502             59.5217               25.344       
        2596.799             59.4512               25.331       
       2606.0497             59.6441               26.371       
       2609.7829             59.8917               26.323       
       2622.8319             60.3839               26.156       
        2635.946             60.7114               25.991       
       2649.1257             60.9801               25.828       
       2662.3714             61.2172               25.666       
       2675.6832             61.4339               25.505       
       2689.0617             61.6361               25.345       
        2702.507             61.8272               25.186       
       2716.0195             62.0092               25.029       
       2729.5996             62.1837               24.873       
       2743.2476             62.3521               24.718       
       2756.9638             62.5148               24.563       
       2770.7486             62.6724               24.408       
       2784.6024             62.8253               24.254       
       2798.5254             62.9741               24.102       
        2812.518             63.1191               23.951       
       2826.5806             63.2608                23.8        
       2840.7135             63.3993               23.651       
       2854.9171             63.5351               23.503       
       2869.1917             63.6683               23.355       
       2883.5376             63.7992               23.209       
       2897.9553             63.9282               23.063       
       2912.4451             64.0556               22.919       
       2927.0073             64.1816               22.775       
       2941.6424              64.307               22.632       
       2956.3506             64.4323               22.49        
       2971.1323             64.5588               22.349       
        2985.988             64.6888               22.209       
       3000.9179             64.8273               22.068       
       3015.9225             64.9674               21.91        
       3031.0021             65.0948               21.753       
       3046.1571             65.2135               21.597       
       3061.3879             65.3258               21.442       
       3076.6949              65.433               21.288       
       3092.0783             65.5355               21.133       
       3107.5387             65.6339               20.98        
       3123.0764             65.7287               20.828       
       3138.6918             65.8203               20.678       
       3154.3853              65.909               20.528       
       3170.1572             65.9951               20.38        
        3186.008             66.0786               20.232       
        3201.938             66.1599               20.086       
       3217.9477              66.239               19.941       
       3234.0374             66.3161               19.798       
       3250.2076             66.3913               19.655       
       3266.4587             66.4647               19.513       
        3282.791             66.5365               19.373       
       3299.2049             66.6066               19.234       
       3315.7009             66.6753               19.096       
       3332.2794             66.9563               18.955       
       3348.9408              67.022               18.811       
       3365.6856             67.0856               18.669       
        3382.514             67.1473               18.528       
       3399.4265              67.207               18.388       
       3416.4237             67.2649               18.249       
       3433.5058             67.4643               18.111       
       3450.6733              67.519               17.969       
       3467.9267             67.5714               17.829       
       3485.2663             67.6219               17.69        
       3502.6927             67.6704               17.553       
       3520.2061             67.7171               17.416       
       3537.8072             67.7622               17.281       
       3555.4962             67.8056               17.147       
       3573.2737             67.8474               17.015       
        3591.14              67.8877               16.883       
       3609.0957             67.9266               16.753       
       3627.1412             67.9642               16.624       
       3645.2769             68.0004               16.496       
       3663.5033             68.0354               16.369       
       3681.8208             68.0691               16.244       
       3700.2299             68.1017               16.119       
       3718.7311             68.1331               15.996       
       3737.3247             68.1635               15.874       
       3756.0114             68.1928               15.753       
       3774.7914             68.2211               15.633       
       3793.6654             68.2484               15.514       
       3812.6337             68.2748               15.397       
       3831.6969             68.3002               15.28        
       3850.8554             68.3248               15.164       
       3870.1096             68.3485               15.05        
       3889.4602             68.3714               14.936       
       3908.9075             68.3935               14.824       
        3928.452             68.4148               14.712       
       3948.0943             68.4354               14.602       
       3967.8347             68.4552               14.492       
       3987.6739             68.4744               14.384       
        4055.024             68.9327               14.024       
        4334.821             69.1536               12.659       
        4633.924             69.1625               11.413       
        4953.664             69.1439               10.286       
        5295.467             69.0244               9.2735       
        5660.855             68.8248               8.3649       
        6051.453             68.5712               7.5559       
        6469.004             68.2652               6.8346       
        6915.365             67.8987               6.1907       
        7392.525             67.4502               5.6052       
        7902.609             66.8549               5.0609       
        8447.89              65.9896               4.5757       
        9030.794             64.4545               4.1277       
        9369.486             62.3361               3.8676       
        9512.897             59.4352               3.7646       
        9551.14               56.021               3.7379       
        9608.504             59.4578               10.373       
        9653.919             60.9185               10.263       
        9751.914             62.4638               10.031       
        10320.04             64.5998               8.906        
        10524.61             64.3529               8.5827       
        10685.7              63.1524               8.3464       
        10728.66             61.4934               8.2858       
        10793.1              63.2855               11.547       
        10954.19              64.899               11.216       
        11032.12              65.218               11.063       
        11045.29             65.2568               11.037       
        11214.35             65.2382               10.718       
        11259.43             64.5312               10.636       
        11327.05             65.5849               12.203       
        11496.11             66.7877               11.917       
        11793.34             67.8684               11.453       
        12607.08             69.5052               10.335       
        13476.97             70.4863               9.312        
        14406.88             71.1522               8.3767       
        15400.95             71.6018               7.513        
        16463.62             71.8997               6.7329       
        17599.61             72.0921               6.0332       
        18813.98             72.2104               5.4086       
        20112.15             72.3359               4.8448       
        21499.88             72.3919               4.3415       
        22983.38             72.4141               3.8876       
        24569.23             72.3832               3.4797       
        26264.5              72.3387               3.1172       
        28076.76             72.2919               2.7722       
        30014.05             72.2127               2.4608       
        32085.02             72.1207               2.1862       
        34298.89             72.0209               1.9439       
        36665.51             71.9153               1.7298       
        39195.43             71.8046               1.5404       
        41899.92             71.6879               1.3723       
        44791.01             71.5613               1.2211       
        47881.59             71.4197               1.0864       
        51185.42              71.252              0.96347       
        54717.21             71.0351              0.85374       
        58492.7              70.7149              0.75663       
        62528.7              70.0604              0.67096       
        64043.78             69.4683              0.64276       
        65024.05             68.3536              0.62552       
        65285.45             67.0188              0.62105       
        65677.55             68.3677               3.2419       
        66657.82             69.5858               3.1695       
        66843.18             69.7049               3.1561       
        71455.36             70.9895               2.8423       
        76385.78             71.5015               2.5508       
        81656.4              71.8021               2.2872       
        87290.69             71.9969               2.0458       
        93313.74             72.1242               1.8267       
        99752.39             72.2082               1.6314       
        106635.3              72.263               1.4571       
        113993.1             72.2974               1.3016       
        121858.7             72.3173               1.1628       
        130266.9             72.3272               1.039        
        139255.3              72.356              0.92499       
        148864.0             72.3494              0.82342       
        159135.6             72.3382              0.73307       
        170115.9             72.3239              0.65271       
        181853.9             72.3076               0.5812       
        194401.8             72.2902              0.51758       
        207815.6             72.2722              0.46096       
        222154.8             72.2541              0.41057       
        237483.5             72.2361              0.36571       
        253869.9             72.2185              0.32579       
        271386.9             72.2012              0.29024       
        290112.6             72.1845              0.25925       
        310130.4             72.1691              0.23263       
        331529.4             72.1552              0.20876       
        354404.9             72.1423              0.18735       
        378858.8             72.1305              0.16815       
        405000.1             72.1195              0.15093       
        432945.1             72.1094              0.13548       
