# Hg
# Form Factors from Chantler Tables
# DOI: https://dx.doi.org/10.18434/T4HS32
# automatically retrived 2019-02-28 using URL https://physics.nist.gov/cgi-bin/ffast/ffast.pl

# For f_rel the second term, which is 3/5th of the Cromer-Liberman value, is used as suggested by Chantler.
# Real and imaginary part of the formfactors are: f'(E)=f1(E)+f_rel+f_NT and f''(E)=f2(E)
# see also original publication:  https://doi.org/10.1063/1.555974

# Z = 80
# f_rel = -1.0458 e/atom  (Relativistic correction estimate)
# f_NT = -0.017503 e/atom (Nuclear Thomson correction)


#        E (eV)            f1 (e/atom)          f2 (e/atom)     
         6.272               2.49501                0.0         
         6.368               1.42832                0.0         
         6.3936              0.200589               0.0         
         6.432               1.44193               2.3873       
         6.528               2.48802               2.3365       
        7.559334              3.1059               1.9852       
        7.675038             2.74244               1.9863       
        7.705893             2.33399               1.9879       
        7.752174             2.73258               2.777        
        7.867878             3.05471               2.7791       
         10.69               2.45759               4.1468       
        11.42761             2.16853               4.8442       
        12.21612             1.93957               5.7226       
        13.05903             1.82849               6.7781       
        13.9601              1.89424               7.9896       
        14.92335             2.19117               9.3163       
        15.95306             2.76201               10.699       
        17.05382              3.6308               12.063       
        18.23053              4.7973               13.327       
        19.48844             6.38775               14.409       
        20.83314             8.04416               15.239       
        22.27063             9.84804               15.767       
        23.8073              11.7169               15.967       
        25.45001             13.5693               15.841       
        27.20606             15.3289                15.4        
        29.08327              16.915               14.68        
        31.09002             18.2727               13.75        
        33.23523             19.3757               12.683       
        35.52846             20.2196               11.547       
        37.97993             20.8155               10.396       
        40.60054              21.183               9.2771       
        43.40198             21.3436                8.22        
        46.39671             21.3123               7.2453       
        49.59809             21.0827               6.3634       
        53.02035             20.5739               5.5774       
         56.448              19.2513               4.925        
        56.67876              19.036               4.8852       
         57.312              17.9046               4.7787       
        57.5424              16.3099               4.7409       
         57.888              17.9732               7.8113       
         58.752              19.4028               7.5739       
        60.58959             20.3418               7.1042       
        64.77028              20.982               6.1885       
        69.23942             21.0514               5.3921       
        74.01695             20.7897               4.7069       
         78.89               20.0015               4.1481       
        79.12411             19.9183               4.1242       
        80.0975              19.2918               4.0276       
        80.4195              18.4995               3.9966       
        80.9025              19.2719               5.4765       
         82.11               19.9056               5.3527       
        84.58368             20.2531               5.1173       
        90.41995             20.3692               4.6406       
         96.53               20.0752               4.1848       
        96.65893             20.0607               4.1755       
        98.0075              19.8095               4.0799       
        98.4015              19.5494               4.0524       
        98.9925              19.7596               4.4825       
        100.156               19.864               4.4029       
         100.47              19.8637               4.3818       
        101.689              19.7713               4.3008       
        102.0978             19.6098               4.274        
        102.711              19.7752               4.557        
        103.3284             19.8528               4.5185       
        104.244              19.9021               4.4623       
        110.4581             19.8318               4.1148       
        117.894              19.4244               3.8128       
        118.0797             19.4106               3.8071       
        119.6985             19.2669               3.7608       
        120.1797             19.1823               3.7483       
        120.9015             19.1886               3.8387       
        122.706              19.1141               3.8085       
        126.2272             18.8983               3.7697       
        134.9368             18.2729               3.7829       
        144.2475             17.5385               3.9599       
        154.2005             16.7188               4.3288       
        164.8404             15.8389               4.9248       
        176.2144             14.9425               5.7859       
        188.3732             14.0719               6.946        
        201.3709             13.3063               8.4265       
        215.2655              12.733               10.226       
        230.1188             12.4451               12.315       
        245.997              12.5328               14.627       
        262.9708             13.0524               17.066       
        281.1158             14.0382               19.513       
        300.5128             15.4764               21.838       
        321.2482             17.2942               23.915       
        343.4143             19.3207               25.639       
        352.604              20.0658               26.205       
        358.001              20.3115               26.499       
        359.4402             20.1357               26.573       
        361.599              20.6264               27.286       
        367.1099             21.3794               27.585       
        370.734              21.7622               27.768       
        376.4085             22.2111               28.033       
        377.9217             22.1524               28.099       
        380.1915             22.6131               28.637       
        385.866              23.4096               28.891       
        392.4405             24.1932               29.159       
        419.5189             27.1474               29.963       
        448.4657             30.0221               30.316       
        479.4098             32.7346               30.258       
         500.0               35.5563               30.041       
         502.5               35.7355               30.007       
        505.0125             35.9127               29.972       
       507.53756             36.0877               29.935       
       510.07525             36.2605               29.896       
       512.62563             36.4309               29.856       
       515.18875             36.5988               29.814       
        517.7647             36.7641               29.771       
       520.35352             36.9267               29.726       
       522.95529             37.0863               29.68        
       525.57007             37.2427               29.632       
       528.19792             37.3958               29.583       
       530.83891             37.5452               29.533       
        533.4931             37.6906               29.481       
       536.16057             37.8316               29.428       
       538.84137             37.9677               29.374       
       541.53558             38.0981               29.319       
       544.24325             38.2222               29.262       
       546.96447             38.3387               29.204       
       549.69929             38.4461               29.146       
       552.44779             38.5423               29.085       
       555.21003              38.624               29.024       
       557.98608             38.6861               28.962       
       560.77601             38.7198               28.899       
       563.57989             38.7072               28.835       
       566.39779             38.6046               28.769       
       569.22978             38.2315               28.703       
       570.28052             37.7853               28.678       
       571.71944              37.867               30.411       
       572.07593             38.1133               30.402       
        574.9363             39.0033               30.336       
       577.81099             39.4715               30.27        
       580.70004             39.8291               30.202       
       583.60354             40.1339               30.133       
       586.52156             40.4073               30.064       
       589.45417             40.6595               29.994       
       592.40144             40.8963               29.923       
       595.36345             41.1213               29.851       
       598.34026             41.3368               29.779       
       601.33196             41.5444               29.705       
       604.33862             41.7452               29.632       
       607.36032             41.9402               29.557       
       610.39712              42.13                29.482       
        613.4491              42.315               29.406       
       616.51635             42.4957               29.329       
       619.59893             42.6724               29.252       
       622.69693             42.8453               29.175       
       625.81041             43.0146               29.097       
       628.93946             43.1805               29.018       
       632.08416              43.343               28.939       
       635.24458             43.5022               28.859       
        638.4208             43.6582               28.779       
       641.61291             43.8108               28.698       
       644.82097              43.96                28.617       
       648.04508             44.1056               28.535       
        651.2853             44.2475               28.453       
       654.54173             44.3851               28.37        
       657.81444             44.5179               28.287       
       661.10351             44.6448               28.204       
       664.40903              44.764               28.12        
       667.73107             44.8721               28.036       
       671.06973             44.9604               27.952       
       674.42508             44.9967               27.867       
        675.9456             44.9425               27.828       
        677.7972              45.011               28.169       
       677.85446             45.0209               28.168       
       681.18619             45.3418               28.086       
       684.59212             45.5509               28.002       
       688.01508             45.7317               27.918       
       691.45515              45.899               27.833       
       694.91243             46.0577               27.749       
       698.38699             46.2104               27.664       
       701.87893             46.3584               27.579       
       705.38832             46.5024               27.493       
       708.91526             46.6431               27.408       
       712.45984             46.7807               27.322       
       716.02214             46.9156               27.236       
       719.60225             47.0479               27.15        
       723.20026             47.1777               27.064       
       726.81626             47.3052               26.977       
       730.45034             47.4305               26.891       
        734.1026             47.5535               26.804       
       737.77311             47.6742               26.717       
       741.46197             47.7928               26.631       
       745.16928             47.9091               26.544       
       748.89513             48.0231               26.457       
       752.63961             48.1347               26.369       
        756.4028             48.2437               26.282       
       760.18482             48.3501               26.195       
       763.98574             48.4535               26.107       
       767.80567             48.5536               26.02        
        771.6447              48.65                25.933       
       775.50292             48.7418               25.845       
       779.38044              48.828               25.757       
       783.27734             48.9068               25.67        
       787.19373             48.9748               25.582       
       791.12969              49.025               25.495       
       795.08534             49.0382               25.407       
       799.06077             48.8992               25.319       
       799.06754             48.8984               25.319       
       801.53246             48.9654               25.809       
       803.05607             49.1457               25.776       
       807.07135             49.4087               25.689       
       811.10671             49.5963               25.602       
       815.16224             49.7572               25.515       
       819.23806             49.9039               25.428       
       823.33425             50.0417               25.342       
       827.45092             50.1731               25.255       
       831.58817             50.2998               25.168       
       835.74611             50.4226               25.082       
       839.92484             50.5422               24.995       
       844.12447             50.6591               24.909       
       848.34509             50.7736               24.822       
       852.58682              50.886               24.736       
       856.84975             50.9965               24.65        
        861.134              51.1052               24.564       
       865.43967             51.2124               24.478       
       869.76687              51.318               24.392       
        874.1157             51.4223               24.306       
       878.48628             51.5253               24.22        
       882.87871              51.627               24.135       
        887.2931             51.7276               24.049       
       891.72957             51.8271               23.964       
       896.18822             51.9256               23.878       
       900.66916              52.023               23.793       
        905.1725             52.1194               23.708       
       909.69837             52.2149               23.623       
       914.24686             52.3095               23.538       
       918.81809             52.4032               23.454       
       923.41218             52.4961               23.369       
       928.02924             52.5882               23.285       
       932.66939             52.6796                23.2        
       937.33274             52.7702               23.116       
        942.0194             52.8601               23.032       
        946.7295             52.9495               22.948       
       951.46315             53.0382               22.865       
       956.22046             53.1263               22.781       
       961.00156             53.2139               22.698       
       965.80657             53.3011               22.615       
        970.6356             53.3877               22.531       
       975.48878             53.4738               22.447       
       980.36623             53.5595               22.364       
       985.26806             53.6449               22.281       
        990.1944              53.73                22.198       
       995.14537             53.8151               22.115       
       1000.1211             53.9003               22.032       
       1005.1217             53.9836               21.918       
       1010.1473             54.0644               21.804       
        1015.198             54.1431               21.692       
        1020.274             54.2195               21.58        
       1025.3754              54.294               21.468       
       1030.5023             54.3665               21.358       
       1035.6548             54.4372               21.248       
       1040.8331              54.506               21.138       
       1046.0372             54.5731               21.029       
       1051.2674             54.6385               20.921       
       1056.5238             54.7022               20.813       
       1061.8064             54.7643               20.706       
       1067.1154             54.8248               20.599       
        1072.451             54.8839               20.493       
       1077.8132             54.9414               20.388       
       1083.2023             55.0167               20.283       
       1088.6183             55.0715               20.178       
       1094.0614             55.1249               20.074       
       1099.5317              55.177               19.971       
       1105.0294             55.2278               19.868       
       1110.5545             55.2772               19.766       
       1116.1073             55.3254               19.664       
       1121.6878             55.3724               19.563       
       1127.2963             55.4182               19.462       
       1132.9328             55.4629               19.362       
       1138.5974             55.5107               19.263       
       1144.2904             55.5533               19.164       
       1150.0119             55.5945               19.065       
       1155.7619             55.6345               18.966       
       1161.5407             55.6733               18.868       
       1167.3484              55.711               18.77        
       1173.1852             55.7474               18.673       
       1179.0511             55.7828               18.577       
       1184.9464              55.817               18.481       
       1190.8711             55.8501               18.385       
       1196.8254             55.8821               18.29        
       1202.8096             55.9131               18.196       
       1208.8236              55.943               18.102       
       1214.8677             55.9719               18.009       
       1220.9421             55.9997               17.916       
       1227.0468             56.0266               17.824       
        1233.182             56.0524               17.732       
       1239.3479             56.0772               17.641       
       1245.5447             56.1011               17.551       
       1251.7724              56.124               17.461       
       1258.0312              56.146               17.371       
       1264.3214              56.167               17.282       
        1270.643              56.187               17.194       
       1276.9962             56.2061               17.106       
       1283.3812             56.2244               17.018       
       1289.7981             56.2417               16.931       
       1296.2471             56.2581               16.845       
       1302.7283             56.2736               16.759       
        1309.242             56.2882               16.674       
       1315.7882              56.302               16.589       
       1322.3671             56.3149               16.505       
        1328.979             56.3269               16.421       
       1335.6239             56.3381               16.337       
        1342.302             56.3485               16.255       
       1349.0135             56.3581               16.172       
       1355.7586             56.3668               16.09        
       1362.5374             56.3746               16.008       
        1369.35              56.3815               15.927       
       1376.1968             56.3876               15.846       
       1383.0778             56.3927               15.766       
       1389.9932              56.397               15.686       
       1396.9431             56.4005               15.607       
       1403.9278             56.4031               15.528       
       1410.9475             56.4049               15.449       
       1418.0022             56.4059               15.371       
       1425.0922              56.406               15.294       
       1432.2177             56.4054               15.217       
       1439.3788              56.404               15.14        
       1446.5757             56.4015               15.056       
       1453.8086             56.3975               14.972       
       1461.0776             56.3921               14.889       
        1468.383             56.3854               14.807       
       1475.7249             56.3773               14.725       
       1483.1035             56.3679               14.644       
        1490.519             56.3571               14.563       
       1497.9716             56.3451               14.483       
       1505.4615             56.3317               14.403       
       1512.9888             56.3171               14.324       
       1520.5537             56.3009               14.24        
       1528.1565              56.283               14.157       
       1535.7973             56.2635               14.074       
       1543.4763             56.2423               13.992       
       1551.1937             56.2193               13.91        
       1558.9496             56.1947               13.83        
       1566.7444             56.1684               13.749       
       1574.5781             56.1405               13.669       
        1582.451             56.1108               13.59        
       1590.3633             56.0794               13.512       
       1598.3151             56.0463               13.434       
       1606.3066             56.0115               13.356       
       1614.3382              55.975               13.279       
       1622.4099             55.9367               13.203       
       1630.5219             55.8966               13.127       
       1638.6745             55.8546               13.052       
       1646.8679             55.8109               12.977       
       1655.1022             55.7653               12.903       
       1663.3777             55.7178               12.829       
       1671.6946             55.6683               12.756       
       1680.0531             55.6169               12.683       
       1688.4534             55.5635               12.611       
       1696.8956              55.508               12.54        
       1705.3801             55.4504               12.469       
        1713.907             55.3995               12.398       
       1722.4766             55.3376               12.328       
       1731.0889             55.2734               12.258       
       1739.7444             55.2068               12.189       
       1748.4431             55.1379               12.121       
       1757.1853             55.0665               12.053       
       1765.9712             54.9926               11.985       
       1774.8011              54.916               11.918       
       1783.6751             54.8367               11.851       
       1792.5935             54.7546               11.785       
       1801.5565             54.6696               11.719       
       1810.5642             54.5816               11.654       
       1819.6171             54.4904               11.589       
       1828.7151              54.396               11.525       
       1837.8587             54.2982               11.461       
        1847.048             54.1969               11.397       
       1856.2833              54.092               11.331       
       1865.5647             53.9831               11.265       
       1874.8925              53.87                11.199       
        1884.267             53.7525               11.133       
       1893.6883             53.6305               11.068       
       1903.1567             53.5037               11.003       
       1912.6725             53.3719               10.939       
       1922.2359             53.2348               10.875       
       1931.8471             53.0921               10.808       
       1941.5063             52.9435               10.743       
       1951.2138             52.7886               10.678       
       1960.9699              52.627               10.613       
       1970.7747             52.4584               10.549       
       1980.6286             52.2823               10.486       
       1990.5318             52.0982               10.423       
       2000.4844             51.9057               10.361       
       2010.4868             51.7041               10.299       
       2020.5393             51.4927               10.238       
        2030.642             51.2709               10.177       
       2040.7952             51.0388               10.117       
       2050.9992             50.7935               10.057       
       2061.2542              50.535               9.9978       
       2071.5604             50.2621               9.939        
       2081.9182             49.9733               9.8808       
       2092.3278             49.6672               9.823        
       2102.7895             49.3418               9.7657       
       2113.3034              48.995               9.7088       
       2123.8699             48.6243               9.6524       
       2134.4893             48.2267               9.5965       
       2145.1617             47.7985               9.5411       
       2155.8875             47.3353               9.4861       
        2166.667             46.8315               9.4315       
       2177.5003             46.2802               9.3774       
       2188.3878             45.6724               9.3238       
       2199.3297             44.9963               9.2706       
       2210.3264             44.2358               9.2178       
        2221.378             43.3681               9.1654       
       2232.4849             42.3593               9.1135       
       2243.6473             41.1558               9.0619       
       2254.8656             39.6644               9.0108       
       2266.1399             37.6989               8.9601       
       2277.4706             34.7858               8.9098       
       2288.8579             28.8037               8.859        
       2294.2849             16.2146               8.8346       
        2295.515             15.9129               26.029       
       2300.3022             27.7369               25.949       
       2311.8037             33.6852               25.758       
       2323.3628             36.1133               25.568       
       2334.9796             37.4118               25.38        
       2346.6545             38.0194               25.194       
       2358.3878             37.9796               25.009       
       2370.1797             36.9517               24.826       
       2382.0306             32.0152               24.644       
       2384.2276             26.9354               24.61        
       2385.5726             26.8547               35.97        
       2393.9407             36.8932               35.781       
       2405.9104             40.7295               35.513       
        2417.94              43.0624               35.247       
       2430.0297             44.8169               34.984       
       2442.1798             46.2493               34.722       
       2454.3907             47.4704               34.463       
       2466.6627             48.5392               34.206       
        2478.996             49.4914               33.951       
        2491.391             50.3506               33.698       
       2503.8479             51.1332               33.447       
       2516.3672              51.851               33.198       
        2528.949             52.5131               32.95        
       2541.5938             53.1265               32.705       
       2554.3017             53.6965               32.462       
       2567.0732             54.2277               32.221       
       2579.9086             54.7234               31.982       
       2592.8082             55.1867               31.744       
       2605.7722             55.6197               31.509       
       2618.8011             56.0245               31.275       
       2631.8951             56.4023               31.043       
       2645.0545             56.7544               30.813       
       2658.2798             57.0814               30.585       
       2671.5712             57.3837               30.359       
       2684.9291             57.6613               30.134       
       2698.3537             57.9137               29.911       
       2711.8455             58.1399               29.69        
       2725.4047              58.338               29.47        
       2739.0317             58.5052               29.252       
       2752.7269             58.6369               29.035       
       2766.4905             58.7262               28.82        
        2780.323             58.7616               28.607       
       2794.2246             58.7228               28.395       
       2808.1957              58.57                28.185       
       2822.2367             58.2069               27.977       
       2836.3479             57.2756               27.771       
       2844.3469             55.4687               27.655       
       2849.8532             55.5003               32.096       
       2850.5296             55.8297               32.086       
       2864.7823             58.4538               31.866       
       2879.1062             59.5579               31.648       
       2893.5017             60.3325               31.432       
       2907.9692             60.9542               31.217       
       2922.5091             61.4855               31.003       
       2937.1216             61.9557               30.791       
       2951.8072             62.3814               30.58        
       2966.5662             62.7725               30.371       
       2981.3991             63.1359               30.164       
       2996.3061             63.4754               29.955       
       3011.2876             63.8311               29.729       
        3026.344             64.1655               29.499       
       3041.4758             64.4728               29.271       
       3056.6831             64.7575               29.045       
       3071.9666             65.0223               28.82        
       3087.3264             65.2691               28.597       
        3102.763              65.499               28.376       
       3118.2768             65.7117               28.154       
       3133.8682             65.9074               27.934       
       3149.5376             66.0857               27.715       
       3165.2853             66.2456               27.499       
       3181.1117             66.3851               27.284       
       3197.0172             66.5007               27.07        
       3213.0023              66.586               26.859       
       3229.0673             66.6285               26.648       
       3245.2127             66.6002               26.44        
       3261.4387             66.4119               26.233       
       3273.6807             65.8359               26.079       
       3277.7459             64.8291               26.028       
       3283.3195             65.9237               27.74        
       3294.1347             66.7125               27.594       
       3310.6053             67.2914               27.373       
       3327.1584             67.6869               27.155       
       3343.7941             68.0037               26.938       
       3360.5131             68.2737               26.723       
       3377.3157              68.511               26.509       
       3394.2023             68.7226               26.298       
       3411.1733             68.9123               26.088       
       3428.2291             69.0819               25.88        
       3445.3703             69.2312               25.676       
       3462.5971             69.3634               25.48        
       3479.9101             69.4775               25.286       
       3497.3097             69.5685               25.094       
       3514.7962             69.6263               24.903       
       3532.3702             69.6255               24.715       
       3550.0321             69.4622               24.529       
        3554.085             69.3485               24.487       
       3567.7822             69.3913               25.428       
       3569.1149             69.4698               25.414       
       3585.6211             70.0065               25.243       
       3603.5492             70.3407               25.06        
        3621.567             70.6015               24.879       
       3639.6748              70.826                24.7        
       3657.8732              71.028               24.523       
       3676.1626             71.2143               24.347       
       3694.5434             71.3889               24.173       
       3713.0161             71.5539               23.998       
       3731.5812             71.7099               23.824       
       3750.2391             71.8583               23.651       
       3768.9903             72.0003               23.48        
       3787.8352             72.1364               23.311       
       3806.7744             72.2673               23.143       
       3825.8083             72.3934               22.977       
       3844.9373             72.5153               22.812       
        3864.162             72.6331               22.649       
       3883.4828             72.7473               22.487       
       3902.9002              72.858               22.327       
       3922.4147             72.9654               22.169       
       3942.0268             73.0699               22.012       
       3961.7369             73.1714               21.856       
       3981.5456             73.2703               21.701       
       4001.4533             73.3666               21.548       
       4021.4606             73.4604               21.397       
       4041.5679              73.552               21.247       
       4061.7757             73.6414               21.098       
       4082.0846             73.7287               20.95        
        4102.495             73.8141               20.803       
       4123.0075             73.8976               20.658       
       4143.6226             73.9793               20.514       
       4164.3407             74.0594               20.372       
       4185.1624             74.1379               20.23        
       4206.0882             74.2151               20.09        
       4227.1186             74.2908               19.951       
       4248.2542             74.3655               19.813       
       4269.4955              74.439               19.675       
        4290.843             74.5107               19.535       
       4312.2972             74.5805               19.397       
       4333.8587             74.6485               19.26        
        4355.528              74.715               19.125       
       4377.3056             74.7799               18.99        
       4399.1921             74.8435               18.856       
       4421.1881             74.9056               18.723       
        4443.294             74.9665               18.592       
       4465.5105             75.0261               18.461       
       4487.8381             75.0846               18.331       
       4510.2772              75.142               18.202       
       4532.8286             75.1983               18.075       
       4555.4928             75.2537               17.948       
       4578.2702             75.3081               17.822       
       4601.1616             75.5526               17.694       
       4624.1674             75.6054               17.562       
       4647.2882             75.6565               17.431       
       4670.5247             75.7058               17.301       
       4693.8773             75.7535               17.172       
       4717.3467             75.7997               17.044       
       4740.9334             75.8445               16.917       
       4764.6381              75.888               16.792       
       4788.4613             76.0591               16.663       
       4812.4036             76.0999               16.535       
       4836.4656              76.139               16.408       
       4860.6479             76.1766               16.281       
       4884.9512             76.2126               16.156       
       4909.3759             76.2472               16.032       
       4933.9228             76.2804               15.91        
       4958.5924             76.3124               15.788       
       4983.3854             76.3431               15.667       
       5008.3023             76.3726               15.547       
       5033.3438             76.4009               15.429       
       5058.5105             76.4282               15.311       
       5083.8031             76.4544               15.195       
       5109.2221             76.4795               15.079       
       5134.7682             76.5037               14.965       
       5160.4421             76.5269               14.851       
       5186.2443             76.5492               14.739       
       5212.1755             76.5706               14.627       
       5238.2364             76.5911               14.516       
       5264.4276             76.6108               14.407       
       5290.7497             76.6297               14.298       
       5317.2034             76.6478               14.19        
       5343.7895             76.6652               14.084       
       5370.5084             76.6818               13.978       
       5397.3609             76.6977               13.873       
       5424.3477             76.7129               13.769       
       5451.4695             76.7275               13.666       
       5478.7268             76.7414               13.564       
       5506.1205             76.7548               13.462       
       5533.6511             76.7675               13.362       
       5561.3193             76.7797               13.262       
       5589.1259             76.7913               13.164       
       5617.0716             76.8024               13.066       
       5645.1569              76.813               12.969       
       5673.3827             76.8231               12.873       
       5701.7496             76.9308               12.777       
       5730.2584             76.9406               12.679       
       5758.9096             76.9495               12.582       
       5787.7042             76.9576               12.485       
       5816.6427              76.965               12.39        
       5845.7259             76.9716               12.295       
       5874.9546             76.9776               12.201       
       5904.3293             76.9829               12.109       
        5933.851             76.9876               12.016       
       5963.5202             76.9916               11.925       
       5993.3378             76.9951               11.835       
       6023.3045              76.998               11.745       
        6053.421             77.0004               11.656       
       6083.6882             77.0022               11.568       
       6114.1066             77.0035               11.48        
       6144.6771             77.0044               11.394       
       6175.4005             77.0047               11.308       
       6206.2775             77.0046               11.223       
       6237.3089             77.0041               11.139       
       6268.4954             77.0031               11.055       
       6299.8379             77.0017               10.972       
       6331.3371             76.9999               10.89        
       6362.9938             76.9976               10.809       
       6394.8088             76.9951               10.728       
       6426.7828             76.9921               10.648       
       6458.9167             76.9888               10.569       
       6491.2113             76.9852               10.491       
       6523.6674             76.9812               10.413       
       6556.2857             76.9769               10.336       
       6589.0671             77.0119               10.258       
       6622.0125             77.0071               10.181       
       6655.1225             77.0019               10.105       
       6688.3981             76.9963               10.029       
       6721.8401             76.9903               9.9538       
       6755.4493             76.9839               9.8794       
       6789.2266             76.9772               9.8049       
       6823.1727              76.97                9.731        
       6857.2886             76.9625               9.6577       
        6891.575             76.9546               9.5851       
       6926.0329             76.9463               9.5132       
       6960.6631             76.9377               9.4418       
       6995.4664             76.9288               9.3711       
       7030.4437             76.9195               9.301        
       7065.5959             76.9099               9.2315       
       7100.9239             76.8999               9.1626       
       7136.4285             76.9064               9.0937       
       7172.1107             76.8959               9.025        
       7207.9712             76.8851               8.9569       
       7244.0111             76.8739               8.8894       
       7280.2311             76.8624               8.8224       
       7316.6323             76.8505               8.7561       
       7353.2155             76.8383               8.6903       
       7389.9815             76.8257               8.6252       
       7426.9314             76.8128               8.5605       
       7464.0661             76.7996               8.4965       
       7501.3864              76.786               8.433        
       7538.8934             76.7722                8.37        
       7576.5878              76.758               8.3076       
       7614.4708             76.7435               8.2458       
       7652.5431             76.7287               8.1844       
       7690.8058             76.7137               8.1236       
       7729.2599             76.6983               8.0633       
       7767.9062             76.6827               8.0036       
       7806.7457             76.6667               7.9443       
       7845.7794             76.6505               7.8856       
       7885.0083              76.634               7.8274       
       7924.4334             76.6172               7.7697       
       7964.0555             76.6001               7.7124       
       8003.8758             76.5828               7.6557       
       8043.8952             76.5652               7.5994       
       8084.1147             76.5473               7.5436       
       8124.5352             76.5292               7.4883       
       8165.1579             76.5108               7.4335       
       8205.9837             76.4921               7.3791       
       8247.0136             76.4732               7.3252       
       8288.2487             76.4541               7.2718       
       8329.6899             76.4347               7.2188       
       8371.3384             76.4151               7.1663       
       8413.1951             76.3952               7.1142       
        8455.261             76.3752               7.0625       
       8497.5373             76.3549               7.0113       
        8540.025             76.3345               6.9606       
        9030.794             76.1838               6.3981       
        9653.919             75.7597               5.7278       
        10320.04             75.1472               5.1273       
        11032.12             74.2114               4.5818       
        11793.34             72.3323               4.1008       
        12038.22              70.976               3.9647       
        12222.48              68.26                3.8675       
        12271.62             65.0762               3.8422       
        12345.32             68.2479               10.028       
        12529.58             71.0452               9.7696       
        12607.08             71.5833               9.664        
        13476.97             73.5382               8.5946       
        13924.53             73.1608               8.1174       
        14137.66              71.953               7.9052       
        14194.49             70.3784               7.8501       
        14279.74              72.01                10.908       
        14406.88             73.0797               10.743       
        14492.87             73.4317               10.634       
        14542.51             73.5707               10.572       
        14765.1              73.6042               10.301       
        14824.46             72.9374               10.231       
        14913.5              73.9597               11.735       
        15136.09             75.1292               11.469       
        15400.95             75.8937               11.166       
        16463.62             77.5917               10.054       
        17599.61             78.5498               9.0411       
        18813.98             79.1746               8.1288       
        20112.15             79.5942               7.3007       
        21499.88             79.8742               6.5577       
        22983.38             80.0602               5.8932       
        24569.23             80.2412               5.2991       
        26264.5              80.3201               4.7609       
        28076.76             80.3721               4.2505       
        30014.05             80.4278               3.7827       
        32085.02             80.3867               3.3608       
        34298.89             80.3222               2.9883       
        36665.51             80.2429               2.6592       
        39195.43              80.154               2.3682       
        41899.92             80.0584               2.1106       
        44791.01             79.9578               1.8826       
        47881.59              79.853               1.6806       
        51185.42             79.7436               1.5013       
        54717.21             79.6279               1.3407       
        58492.7              79.5009               1.1966       
        62528.7              79.3567               1.0684       
        66843.18             79.1821              0.95129       
        71455.36             78.9465              0.84623       
        76385.78              78.566              0.75312       
        81440.26             77.5656              0.67195       
        81656.4              77.4618              0.66864       
        82686.79             76.5087              0.65321       
        83019.2              75.2427              0.64835       
        83517.81             76.5634               3.1333       
        84764.35             77.7188               3.0616       
        87290.69              78.512               2.9234       
        93313.74             79.2696               2.6296       
        99752.39              79.651               2.3616       
        106635.3             79.8848               2.1189       
        113993.1             80.0388               1.9006       
        121858.7             80.1439               1.7028       
        130266.9             80.2131               1.5238       
        139255.3             80.2578               1.3635       
        148864.0             80.2851               1.2201       
        159135.6             80.2998               1.0918       
        170115.9             80.3056               0.9771       
        181853.9             80.3049              0.87381       
        194401.8              80.299               0.7813       
        207815.6             80.2894              0.69866       
        222154.8             80.2774              0.62482       
        237483.5             80.2639              0.55884       
        253869.9             80.2494              0.49988       
        271386.9             80.2345              0.44718       
        290112.6             80.2195              0.40007       
        310130.4             80.2046              0.35796       
        331529.4             80.1901               0.3203       
        354404.9             80.1761              0.28663       
        378858.8             80.1627              0.25652       
        405000.1              80.15               0.22959       
        432945.1              80.138               0.2055       
