# Ho
# Form Factors from Chantler Tables
# DOI: https://dx.doi.org/10.18434/T4HS32
# automatically retrived 2019-02-28 using URL https://physics.nist.gov/cgi-bin/ffast/ffast.pl

# For f_rel the second term, which is 3/5th of the Cromer-Liberman value, is used as suggested by Chantler.
# Real and imaginary part of the formfactors are: f'(E)=f1(E)+f_rel+f_NT and f''(E)=f2(E)
# see also original publication:  https://doi.org/10.1063/1.555974

# Z = 67
# f_rel = -0.6714 e/atom  (Relativistic correction estimate)
# f_NT = -0.014931 e/atom (Nuclear Thomson correction)


#        E (eV)            f1 (e/atom)          f2 (e/atom)     
         10.69               9.73216              0.29493       
        11.42761             9.93946              0.32621       
        12.21612             9.65648              0.36196       
        13.05903             9.30247              0.40282       
        13.9601               8.8488              0.44955       
        14.92335             8.24754              0.50299       
        15.95306             7.41052              0.56408       
        17.05382              6.1512              0.63386       
        18.23053             3.97033              0.71346       
        19.48844             -1.39811             0.80413       
         19.894              -5.95584             0.83457       
        20.1985              -16.0324             0.85779       
        20.2797              -28.5314             0.86404       
        20.4015              -14.9118              25.698       
         20.706              -2.86167              24.583       
        20.83314            -0.410622              24.138       
        22.27063             11.2389               19.827       
        23.8073              15.5912               16.295       
        25.45001             17.6656               13.389       
        27.20606              18.601               11.076       
        29.08327             18.9102               9.2885       
        31.09002             18.8728               7.9449       
        33.23523             18.6521               6.9671       
        35.52846             18.3458               6.2858       
        37.97993             18.0125               5.844        
        40.60054             17.6872               5.5958       
        43.40198             17.3911               5.5061       
        46.39671             17.1367               5.548        
        49.59809             16.9294               5.7012       
         50.176              16.8969               5.738        
         50.944              16.8496               5.7905       
        51.1488              16.8262               5.8051       
         51.456              16.8282               5.8567       
         52.224              16.8126               5.9165       
        53.02035             16.7927               5.9822       
        56.67876              16.739               6.3228       
        60.58959             16.7654               6.7412       
        64.77028             16.9116               7.2311       
        69.23942             17.1692               7.788        
        74.01695             17.5279               8.0914       
        79.12411             17.9004               8.3762       
        84.58368             18.2919               8.651        
        90.41995             18.7022               8.9095       
        96.65893             19.1268               9.1457       
         100.0               21.6923               9.2556       
         100.5               21.7247               9.2711       
        101.0025              21.757               9.2864       
       101.50751             21.7893               9.3015       
       102.01505             21.8216               9.3165       
       102.52513             21.8539               9.3313       
       103.03775             21.8862               9.3459       
       103.55294             21.9184               9.3603       
        104.0707             21.9506               9.3745       
       104.59106             21.9827               9.3886       
       105.11401             22.0148               9.4024       
       105.63958             22.0468               9.4161       
       106.16778             22.0787               9.4296       
       106.69862             22.1106               9.4429       
       107.23211             22.1423               9.456        
       107.76827              22.174               9.4689       
       108.30712             22.2056               9.4817       
       108.84865              22.237               9.4942       
       109.39289             22.2684               9.5065       
       109.93986             22.2995               9.5186       
       110.48956             22.3306               9.5306       
       111.04201             22.3615               9.5423       
       111.59722             22.3922               9.5538       
        112.1552             22.4228               9.5651       
       112.71598             22.4531               9.5762       
       113.27956             22.4833               9.5871       
       113.84596             22.5132               9.5978       
       114.41519              22.543               9.6082       
       114.98726             22.5724               9.6185       
        115.5622             22.6017               9.6286       
       116.14001             22.6306               9.6384       
       116.72071             22.6592               9.648        
       117.30431             22.6876               9.6574       
       117.89083             22.7156               9.6666       
       118.48029             22.7433               9.6755       
       119.07269             22.7706               9.6843       
       119.66805             22.7975               9.6928       
       120.26639              22.824               9.7011       
       120.86772             22.8501               9.7092       
       121.47206             22.8758               9.717        
       122.07942             22.9009               9.7246       
       122.68982             22.9256               9.732        
       123.30327             22.9497               9.7392       
       123.91979             22.9733               9.7462       
       124.53939             22.9962               9.7529       
       125.16208             23.0186               9.7594       
       125.78789             23.0402               9.7656       
       126.41683             23.0612               9.7717       
       127.04892             23.0814               9.7774       
       127.68416             23.1008               9.783        
       128.32258             23.1194               9.7883       
       128.96419             23.1371               9.7934       
       129.60902             23.1538               9.7983       
       130.25706             23.1696               9.8029       
       130.90835             23.1843               9.8073       
       131.56289             23.1978               9.8115       
        132.2207             23.2102               9.8154       
       132.88181             23.2213               9.8191       
       133.54621             23.2309               9.8226       
       134.21395             23.2392               9.8258       
       134.88502             23.2458               9.8287       
       135.55944             23.2508               9.8315       
       136.23724             23.2539               9.834        
       136.91842             23.2552               9.8363       
       137.60302             23.2543               9.8383       
       138.29103             23.2512               9.8401       
       138.98249             23.2456               9.8416       
        139.6774             23.2373               9.8429       
       140.37579             23.2262               9.844        
       141.07766              23.212               9.8448       
       141.78305             23.1943               9.8454       
       142.49197             23.1728               9.8457       
       143.20443             23.1472               9.8459       
       143.92045              23.117               9.8457       
       144.64005             23.0817               9.8454       
       145.36325             23.0408               9.8447       
       146.09007             22.9936               9.8439       
       146.82052             22.9393               9.8428       
       147.55462             22.8769               9.8415       
       148.29239             22.8054               9.8399       
       149.03386             22.7234               9.8381       
       149.77903             22.6293               9.8361       
       150.52792             22.5211               9.8338       
       151.28056             22.3962               9.8313       
       152.03696             22.2514               9.8285       
       152.79715             22.0827               9.8255       
       153.56113             21.8844               9.8223       
       154.32894             21.6505               9.8188       
       155.10058             21.3677               9.8151       
       155.87609             21.0222               9.8111       
       156.65547             20.5904               9.8069       
       157.43875             20.0337               9.8025       
       158.22594             19.2825               9.7979       
       159.01707             18.1924               9.793        
       159.81215             16.3791               9.7878       
       160.61121              11.974               9.7825       
       160.93012             4.52486               9.7803       
       161.06987             4.76173               24.061       
       161.41427             13.2915               23.717       
       162.22134             18.8069               22.947       
       163.03245             21.4996               22.218       
       163.84761             23.2847               21.529       
       164.66685             24.5995               20.877       
       165.49018             25.6206               20.26        
       166.31763             26.4387               19.676       
       167.14922             27.1074               19.124       
       167.98497             27.6612               18.601       
       168.82489             28.1241               18.107       
       169.66902             28.5131               17.639       
       170.51736             28.8413               17.195       
       171.36995             29.1186               16.776       
        172.2268             29.3527               16.379       
       173.08793             29.5498               16.003       
       173.95337             29.7151               15.647       
       174.82314             29.8524               15.309       
       175.69726             29.9651               14.99        
       176.57574             30.0557               14.687       
       177.45862             30.1258                14.4        
       178.34591             30.1778               14.134       
       179.23764             30.2159               13.887       
       180.13383             30.2432               13.659       
        181.0345             30.2623               13.447       
       181.93967             30.2749               13.251       
       182.84937             30.2824               13.068       
       183.76362             30.2858               12.897       
       184.68244             30.2862               12.738       
       185.60585             30.2842               12.59        
       186.53388             30.2803               12.451       
       187.46655             30.2751               12.321       
       188.40388             30.2689               12.199       
        189.3459              30.262               12.084       
       190.29263             30.2548               11.976       
       191.24409             30.2473               11.874       
       192.20031             30.2399               11.778       
       193.16131             30.2325               11.687       
       194.12712             30.2254               11.601       
       195.09776             30.2185               11.52        
       196.07325             30.2121               11.443       
       197.05361              30.206               11.369       
       198.03888             30.2005                11.3        
       199.02907             30.1954               11.233       
       200.02422             30.1908               11.17        
       201.02434             30.1868               11.109       
       202.02946             30.1832               11.052       
       203.03961             30.1802               10.996       
       204.05481             30.1778               10.943       
       205.07508             30.1758               10.892       
       206.10046             30.1743               10.844       
       207.13096             30.1734               10.797       
       208.16661             30.1728               10.752       
       209.20745             30.1728               10.708       
       210.25348             30.1732               10.666       
       211.30475              30.174               10.626       
       212.36128             30.1752               10.587       
       213.42308             30.1767               10.549       
        214.4902             30.1786               10.512       
       215.56265             30.1809               10.477       
       216.64046             30.1834               10.443       
       217.72366             30.1863               10.409       
       218.81228             30.1894               10.377       
       219.90634             30.1928               10.345       
       221.00588             30.1964               10.315       
        222.1109             30.2002               10.285       
       223.22146             30.2042               10.256       
       224.33757             30.2084               10.228       
       225.45925             30.2127               10.201       
       226.58655             30.2171               10.174       
       227.71948             30.2217               10.148       
       228.85808             30.2263               10.122       
       230.00237              30.231               10.097       
       231.15238             30.2358               10.073       
       232.30814             30.2406               10.049       
       233.46969             30.2454               10.026       
       234.63703             30.2502               10.003       
       235.81022              30.255               9.9804       
       236.98927             30.2598               9.9586       
       238.17422             30.2645               9.9372       
       239.36509             30.2692               9.9163       
       240.56191             30.2737               9.8958       
       241.76472             30.2782               9.8757       
       242.97355             30.2825               9.8561       
       244.18841             30.2868               9.8368       
       245.40936             30.2908               9.8179       
        246.6364             30.2947               9.7994       
       247.86959             30.2984               9.7812       
       249.10893             30.3019               9.7634       
       250.35448             30.3052               9.746        
       251.60625             30.3082               9.7289       
       252.86428              30.311               9.7122       
        254.1286             30.3135               9.6958       
       255.39925             30.3157               9.6798       
       256.67624             30.3176               9.664        
       257.95962             30.3191               9.6486       
       259.24942             30.3203               9.6335       
       260.54567              30.321               9.6188       
        261.8484             30.3214               9.6043       
       263.15764             30.3213               9.5902       
       264.47343             30.3207               9.5764       
       265.79579             30.3196               9.5629       
       267.12477              30.318               9.5496       
        268.4604             30.3158               9.5367       
        269.8027              30.313               9.5242       
       271.15171             30.3095               9.5119       
       272.50747             30.3052               9.4999       
       273.87001             30.3002               9.4882       
       275.23936             30.2943               9.4768       
       276.61556             30.2875               9.4657       
       277.99863             30.2797               9.455        
       279.38863             30.2708               9.4445       
       280.78557             30.2607               9.4343       
        282.1895             30.2492               9.4244       
       283.60044             30.2362               9.4148       
       285.01845             30.2215               9.4056       
       286.44354             30.2049               9.3966       
       287.87576             30.1861               9.3879       
       289.31514             30.1648               9.3795       
       290.76171             30.1405               9.3714       
       292.21552             30.1126               9.3637       
        293.6766             30.0806               9.3562       
       295.14498             30.0432               9.349        
       296.62071             29.9991               9.3421       
       298.10381             29.9462               9.3356       
       299.59433              29.881               9.3293       
        301.0923             29.7978               9.3233       
       302.59776             29.6848               9.3176       
       304.11075             29.5135               9.3123       
        305.6313             29.1672               9.3072       
        306.2977             28.7365               9.3051       
       306.90231             28.7368               10.468       
       307.15946             28.9651               10.468       
       308.69526             29.4571               10.468       
       310.23873             29.6653               10.468       
       311.78993             29.8008               10.468       
       313.34888             29.9022               10.469       
       314.91562             29.9837               10.47        
        316.4902              30.052               10.471       
       318.07265             30.1109               10.473       
       319.66301             30.1626               10.475       
       321.26133             30.2087               10.477       
       322.86764             30.2501               10.479       
       324.48197             30.2875               10.482       
       326.10438             30.3214               10.485       
       327.73491              30.352               10.489       
       329.37358             30.3795               10.492       
       331.02045             30.4038               10.496       
       332.67555             30.4247               10.501       
       334.33893             30.4417               10.505       
       336.01062             30.4539               10.51        
       337.69068             30.4596               10.515       
       339.37913             30.4548               10.521       
       341.07602             30.4294               10.527       
        342.7814             30.3304               10.533       
       343.11527              30.27                10.534       
       343.88471             30.2826               10.869       
       344.49531             30.3931               10.872       
       346.21779             30.5278               10.88        
       347.94888             30.6084               10.888       
       349.68862             30.6716               10.897       
       351.43706             30.7261               10.906       
       353.19425             30.7751               10.915       
       354.96022             30.8205               10.924       
       356.73502             30.8633               10.933       
        358.5187             30.9041               10.943       
       360.31129             30.9432               10.953       
       362.11285             30.9811               10.963       
       363.92341             31.0179               10.974       
       365.74303             31.0538               10.984       
       367.57174             31.0889               10.995       
        369.4096             31.1234               11.006       
       371.25665             31.1573               11.017       
       373.11293             31.1907               11.028       
        374.9785             31.2236               11.039       
       376.85339             31.2561               11.051       
       378.73766             31.2882               11.063       
       380.63135             31.3199               11.074       
        382.5345             31.3513               11.086       
       384.44718             31.3824               11.098       
       386.36941             31.4132               11.111       
       388.30126             31.4437               11.123       
       390.24276             31.4738               11.135       
       392.19398             31.5037               11.148       
       394.15495             31.5332               11.161       
       396.12572             31.5623               11.173       
       398.10635             31.5911               11.186       
       400.09688             31.6194               11.199       
       402.09737             31.6473               11.212       
       404.10785             31.6747               11.225       
       406.12839             31.7014               11.237       
       408.15904             31.7274               11.25        
       410.19983             31.7526               11.263       
       412.25083             31.7768               11.276       
       414.31208             31.7998               11.289       
       416.38364             31.8212               11.302       
       418.46556             31.8409               11.315       
       420.55789             31.8581               11.328       
       422.66068             31.8721               11.341       
       424.77398             31.8818               11.354       
       426.89785             31.8851               11.367       
       429.03234             31.8783               11.38        
        431.1775             31.8532               11.392       
       433.33339             31.7852               11.405       
       435.05516             31.6007               11.415       
       435.50006             31.4146               11.417       
       436.34484             31.6239               11.943       
       437.67756             31.8338               11.952       
       439.86595             31.9973               11.965       
       442.06528              32.108               11.979       
        444.2756             32.1982               11.992       
       446.49698             32.2775               12.005       
       448.72947              32.35                12.018       
       450.97311              32.418               12.031       
       453.22798             32.4828               12.043       
       455.49412             32.5452               12.056       
       457.77159             32.6058               12.068       
       460.06045             32.6649               12.08        
       462.36075             32.7229               12.092       
       464.67255             32.7799               12.104       
       466.99592             32.8362               12.116       
        469.3309             32.8919               12.127       
       471.67755             32.9471               12.138       
       474.03594             33.0018               12.149       
       476.40612             33.0563               12.16        
       478.78815             33.1104               12.17        
       481.18209             33.1643               12.18        
        483.588              33.2323               12.19        
       486.00594             33.2859                12.2        
       488.43597             33.3393               12.209       
       490.87815             33.3926               12.218       
       493.33254             33.4459               12.226       
        495.7992              33.499               12.235       
        498.2782              33.552               12.243       
       500.76959              33.605               12.25        
       503.27344             33.6579               12.258       
        505.7898             33.7108               12.265       
       508.31875             33.7636               12.271       
       510.86035             33.8163               12.278       
       513.41465              33.869               12.283       
       515.98172             33.9217               12.289       
       518.56163             33.9743               12.294       
       521.15444             34.0269               12.299       
       523.76021             34.0794               12.303       
       526.37901             34.1319               12.307       
       529.01091             34.1843               12.311       
       531.65596             34.2366               12.314       
       534.31424             34.2889               12.317       
       536.98581             34.3411               12.32        
       539.67074             34.3933               12.322       
        542.3691             34.4454               12.323       
       545.08094             34.4974               12.324       
       547.80635             34.5493               12.325       
       550.54538             34.6011               12.326       
        553.2981             34.6529               12.326       
        556.0646             34.7045               12.325       
       558.84492              34.756               12.324       
       561.63914             34.8074               12.323       
       564.44734             34.8587               12.321       
       567.26958             34.9098               12.319       
       570.10592             34.9608               12.317       
       572.95645             35.0116               12.314       
       575.82123             35.0623               12.31        
       578.70034             35.1129               12.306       
       581.59384             35.1632               12.302       
       584.50181             35.2134               12.297       
       587.42432             35.2634               12.292       
       590.36144             35.3132               12.287       
       593.31325             35.3627               12.281       
       596.27982             35.4121               12.274       
       599.26122             35.4613               12.267       
       602.25752             35.5102               12.26        
       605.26881             35.5588               12.252       
       608.29515             35.6073               12.244       
       611.33663             35.6554               12.235       
       614.39331             35.7034               12.226       
       617.46528              35.751               12.217       
        620.5526             35.7983               12.207       
       623.65537             35.8454               12.197       
       626.77364             35.8922               12.186       
       629.90751             35.9386               12.175       
       633.05705             35.9848               12.163       
       636.22234             36.0306               12.151       
       639.40345             36.0761               12.139       
       642.60046             36.1213               12.126       
       645.81347             36.1661               12.113       
       649.04253             36.2106               12.099       
       652.28775             36.2546               12.085       
       655.54919             36.2983               12.07        
       658.82693             36.3416               12.055       
       662.12107             36.3845               12.039       
       665.43167             36.4269               12.023       
       668.75883             36.4688               12.006       
       672.10262             36.5103               11.989       
       675.46314             36.5513               11.972       
       678.84045             36.5917               11.954       
       682.23466             36.6317               11.935       
       685.64583             36.6711               11.917       
       689.07406              36.71                11.897       
       692.51943             36.7484               11.878       
       695.98202             36.7862               11.858       
       699.46194             36.8234               11.837       
       702.95924              36.86                11.817       
       706.47404              36.896               11.795       
       710.00641             36.9315               11.774       
       713.55644             36.9663               11.752       
       717.12423             37.0005               11.73        
       720.70985              37.034               11.707       
        724.3134             37.0669               11.684       
       727.93496             37.0992               11.661       
       731.57464             37.1308               11.637       
       735.23251             37.1617               11.613       
       738.90867              37.192               11.589       
       742.60322             37.2215               11.564       
       746.31623             37.2502               11.539       
       750.04781             37.2782               11.513       
       753.79805             37.3053               11.488       
       757.56704             37.3318               11.461       
       761.35488             37.3574               11.435       
       765.16165             37.3822               11.409       
       768.98746             37.4062               11.382       
        772.8324             37.4294               11.355       
       776.69656             37.4518               11.327       
       780.58004             37.4733                11.3        
       784.48294              37.494               11.272       
       788.40536             37.5138               11.244       
       792.34738             37.5327               11.216       
       796.30912             37.5508               11.188       
       800.29067              37.568               11.159       
       804.29212             37.5843               11.13        
       808.31358             37.5997               11.101       
       812.35515             37.6141               11.072       
       816.41693             37.6276               11.043       
       820.49901             37.6402               11.014       
        824.6015             37.6518               10.984       
       828.72451             37.6625               10.955       
       832.86813             37.6721               10.925       
       837.03248             37.6808               10.895       
       841.21764             37.6885               10.865       
       845.42373             37.6951               10.834       
       849.65084             37.7007               10.804       
        853.8991             37.7053               10.774       
       858.16859             37.7088               10.743       
       862.45944             37.7112               10.713       
       866.77173             37.7125               10.682       
       871.10559             37.7127               10.651       
       875.46112             37.7118               10.62        
       879.83843             37.7098               10.589       
       884.23762             37.7066               10.558       
       888.65881             37.7022               10.527       
        893.1021             37.6966               10.496       
       897.56761             37.6898               10.465       
       902.05545             37.6818               10.434       
       906.56573             37.6725               10.403       
       911.09856              37.662               10.371       
       915.65405             37.6501               10.34        
       920.23232             37.6373               10.309       
       924.83348             37.6228               10.277       
       929.45765              37.607               10.246       
       934.10494             37.5897               10.214       
       938.77546             37.5711               10.183       
       943.46934              37.551               10.152       
       948.18668             37.5295               10.12        
       952.92762             37.5065               10.089       
       957.69226             37.4819               10.057       
       962.48072             37.4559               10.026       
       967.29312             37.4282               9.9944       
       972.12959             37.3989               9.963        
       976.99023              37.368               9.9316       
       981.87519             37.3354               9.9002       
       986.78456              37.301               9.8689       
       991.71848              37.265               9.8375       
       996.67708             37.2271               9.8063       
       1001.6605             37.1944               9.7664       
       1006.6688             37.1717               9.7094       
       1011.7021             37.1444               9.6527       
       1016.7606             37.1126               9.5965       
       1021.8444             37.0764               9.5407       
       1026.9536             37.0358               9.4853       
       1032.0884             36.9915               9.4303       
       1037.2489             36.9422               9.3756       
       1042.4351             36.8886               9.3213       
       1047.6473             36.8306               9.2674       
       1052.8855             36.7682               9.2139       
       1058.1499             36.7014               9.1608       
       1063.4407             36.6301               9.108        
       1068.7579             36.5542               9.0556       
       1074.1017             36.4737               9.0036       
       1079.4722             36.3884               8.9519       
       1084.8695             36.2982               8.9005       
       1090.2939             36.2031               8.8496       
       1095.7454             36.1028               8.799        
       1101.2241             35.9972               8.7487       
       1106.7302             35.8862               8.6988       
       1112.2639             35.7695               8.6492       
       1117.8252             35.6469                8.6         
       1123.4143             35.5182               8.5511       
       1129.0314             35.3831               8.5026       
       1134.6765             35.2413               8.4544       
       1140.3499             35.0925               8.4065       
       1146.0517             34.9364               8.359        
       1151.7819             34.7725               8.3118       
       1157.5408             34.6005               8.2649       
       1163.3285             34.4198               8.2183       
       1169.1452              34.23                8.1721       
       1174.9909             34.0305               8.1262       
       1180.8659             33.8205               8.0806       
       1186.7702             33.5995               8.0353       
        1192.704             33.3666               7.9904       
       1198.6676             33.1208               7.9457       
       1204.6609             32.8613               7.9014       
       1210.6842             32.5867               7.8574       
       1216.7376             32.2959               7.8137       
       1222.8213             31.9872               7.7702       
       1228.9354             31.6591               7.7264       
       1235.0801             31.3092               7.6817       
       1241.2555             30.9354               7.6374       
       1247.4618             30.5348               7.5934       
       1253.6991             30.1041               7.5497       
       1259.9676             29.6396               7.5063       
       1266.2674             29.1364               7.4632       
       1272.5988             28.5886               7.4204       
       1278.9618             27.9891               7.3779       
       1285.3566             27.3285               7.3357       
       1291.7833             26.5947               7.2939       
       1298.2423             25.7716               7.2523       
       1304.7335             24.8368               7.211        
       1311.2571             23.7589                7.17        
       1317.8134             22.4875               7.1292       
       1324.4025             20.9428               7.0888       
       1331.0245             18.9771               7.0486       
       1337.6796             16.2672               7.0088       
        1344.368             11.8184               6.9692       
       1351.0899             -7.94075              6.9299       
       1351.2135             -11.1161              6.9291       
       1351.5865             -11.4577              26.506       
       1357.8453              10.239               26.318       
       1364.6345              14.073               26.116       
       1371.4577             15.7145               25.916       
        1378.315             16.0735               25.718       
       1385.2066             14.7112               25.52        
       1391.1646             3.96765               25.352       
       1391.8353             3.88801               38.17        
       1392.1326             6.54188               38.158       
       1399.0933             17.9314               37.86        
       1406.0887             21.6526               37.564       
       1413.1192              24.187               37.271       
       1420.1848             26.1718               36.98        
       1427.2857             27.8253               36.692       
       1434.4221              29.252               36.406       
       1441.5942             30.5108               36.122       
       1448.8022             31.6391               35.84        
       1456.0462              32.662               35.561       
       1463.3265             33.5976               35.284       
       1470.6431             34.4594               35.01        
       1477.9963             35.2575               34.737       
       1485.3863             36.0001               34.467       
       1492.8132             36.6936               34.199       
       1500.2773             37.3433               33.933       
       1507.7787             37.9536               33.669       
       1515.3176             38.5279               33.407       
       1522.8942             39.0695               33.148       
       1530.5086             39.5808               32.89        
       1538.1612             40.0641               32.635       
        1545.852             40.5212               32.382       
       1553.5812             40.9537               32.13        
       1561.3491             41.3631               31.881       
       1569.1559             41.7504               31.634       
       1577.0017             42.1167               31.389       
       1584.8867             42.4626               31.145       
       1592.8111             42.7889               30.904       
       1600.7752             43.0961               30.665       
        1608.779             43.3842               30.427       
       1616.8229             43.6536               30.192       
        1624.907             43.9041               29.958       
       1633.0316             44.1353               29.726       
       1641.1967             44.3466               29.497       
       1649.4027              44.537               29.268       
       1657.6497              44.705               29.042       
        1665.938             44.8485               28.818       
       1674.2677             44.9643               28.595       
        1682.639             45.0477               28.374       
       1691.0522             45.0918               28.154       
       1699.5075             45.0849               27.936       
        1708.005             45.0075               27.719       
        1716.545             44.8213               27.505       
       1725.1278             44.4371               27.292       
       1733.7534             43.5431               27.08        
       1739.4239             41.5726               26.943       
       1742.4222             41.0342               31.568       
        1742.976             41.6119               31.55        
       1751.1343             44.4274               31.301       
       1759.8899             45.5999               31.037       
       1768.6894              46.385               30.775       
       1777.5328             46.9944               30.515       
       1786.4205             47.4994               30.257       
       1795.3526             47.9326               30.002       
       1804.3294             48.3114               29.749       
        1813.351             48.6457               29.498       
       1822.4178             48.9403               29.248       
       1831.5299             49.1977               29.013       
       1840.6875             49.4321               28.792       
       1849.8909             49.6449               28.574       
       1859.1404             49.8346               28.359       
       1868.4361             49.9991               28.148       
       1877.7783             50.1343               27.939       
       1887.1672             50.2326               27.733       
        1896.603             50.2778               27.53        
        1906.086             50.2299               27.329       
       1915.6165              49.937               27.131       
       1920.8002             49.2783               27.025       
       1924.7997             49.3413               28.854       
       1925.1945             49.4604               28.845       
       1934.8205             50.6537               28.626       
       1944.4946             51.2077               28.411       
       1954.2171              51.616               28.198       
       1963.9882             51.9535               27.987       
       1973.8081             52.2468               27.779       
       1983.6772             52.5085               27.573       
       1993.5955             52.7452               27.37        
       2003.5635             52.9608               27.169       
       2013.5813              53.157               26.97        
       2023.6492             53.3351               26.78        
       2033.7675             53.5019               26.597       
       2043.9363             53.6573               26.417       
        2054.156             53.8004               26.24        
       2064.4268              53.93                26.065       
       2074.7489             54.0439               25.892       
       2085.1227              54.138               25.721       
       2095.5483             54.2047               25.552       
        2106.026             54.2263               25.386       
       2116.5562             54.1485               25.221       
       2124.4052             53.8523                25.1        
       2127.1389             53.4378               25.058       
       2132.1947             53.9589               26.163       
       2137.7746             54.3759               26.076       
       2148.4635             54.8132               25.912       
       2159.2058             55.1226               25.749       
       2170.0018             55.3804               25.588       
       2180.8519             55.6091               25.429       
       2191.7561             55.8188               25.271       
       2202.7149             56.0145               25.114       
       2213.7285             56.1996               24.959       
       2224.7971             56.3761               24.805       
       2235.9211             56.5451               24.653       
       2247.1007             56.7088               24.504       
       2258.3362             56.8683               24.356       
       2269.6279             57.0237               24.205       
        2280.976             57.1737               24.053       
       2292.3809             57.3191               23.901       
       2303.8428             57.4601               23.751       
        2315.362             57.5972               23.602       
       2326.9388             57.7308               23.454       
       2338.5735              57.861               23.308       
       2350.2664             57.9882               23.162       
       2362.0177             58.1124               23.017       
       2373.8278              58.234               22.873       
        2385.697              58.353               22.73        
       2397.6254             58.4696               22.589       
       2409.6136             58.5839               22.448       
       2421.6616              58.696               22.308       
       2433.7699             58.8061               22.169       
       2445.9388             58.9142               22.03        
       2458.1685             59.0205               21.893       
       2470.4593             59.1251               21.757       
       2482.8116             59.2282               21.621       
       2495.2257             59.3298               21.486       
       2507.7018             59.4298               21.35        
       2520.2403             59.5276               21.214       
       2532.8415             59.6233               21.078       
       2545.5057             59.7171               20.944       
       2558.2333             59.8091               20.81        
       2571.0244             59.8993               20.677       
       2583.8796             59.9879               20.545       
        2596.799             60.0748               20.414       
       2609.7829             60.1603               20.283       
       2622.8319             60.2443               20.153       
        2635.946             60.3268               20.024       
       2649.1257             60.4081               19.896       
       2662.3714              60.488               19.769       
       2675.6832             60.5667               19.642       
       2689.0617             60.6442               19.516       
        2702.507             60.7206               19.391       
       2716.0195             60.9983               19.263       
       2729.5996             61.0715               19.136       
       2743.2476             61.1433               19.01        
       2756.9638             61.2137               18.885       
       2770.7486              61.283               18.76        
       2784.6024             61.4922               18.636       
       2798.5254             61.5586               18.51        
        2812.518             61.6236               18.385       
       2826.5806             61.6872               18.261       
       2840.7135             61.7495               18.138       
       2854.9171             61.8106               18.016       
       2869.1917             61.8707               17.895       
       2883.5376             61.9297               17.774       
       2897.9553             61.9878               17.655       
       2912.4451             62.0452               17.537       
       2927.0073              62.102               17.419       
       2941.6424             62.1583               17.302       
       2956.3506             62.2144               17.187       
       2971.1323             62.2708               17.072       
        2985.988             62.3279               16.958       
       3000.9179             62.3911               16.844       
       3015.9225             62.4781               16.713       
       3031.0021             62.5382               16.583       
       3046.1571             62.5903               16.452       
       3061.3879              62.638               16.322       
       3076.6949             62.6828               16.194       
       3092.0783             62.7251               16.067       
       3107.5387             62.7655               15.941       
       3123.0764              62.804               15.816       
       3138.6918             62.8409               15.693       
       3154.3853             62.8762               15.57        
       3170.1572             62.9101               15.449       
        3186.008             62.9427               15.329       
        3201.938              62.974               15.21        
       3217.9477             63.0041               15.092       
       3234.0374              63.033               14.975       
       3250.2076             63.0608               14.859       
       3266.4587             63.0876               14.744       
        3282.791             63.1133               14.63        
       3299.2049             63.1381               14.518       
       3315.7009             63.1619               14.406       
       3332.2794             63.1848               14.295       
       3348.9408             63.2068               14.185       
       3365.6856              63.228               14.077       
        3382.514             63.2485               13.969       
       3399.4265             63.2681               13.862       
       3416.4237              63.287               13.757       
       3433.5058             63.3053               13.652       
       3450.6733             63.3228               13.548       
       3467.9267             63.3398               13.445       
       3485.2663              63.459               13.342       
       3502.6927             63.4754               13.237       
       3520.2061             63.4908               13.133       
       3537.8072             63.5051               13.03        
       3555.4962             63.5186               12.928       
       3573.2737             63.5312               12.827       
        3591.14               63.543               12.727       
       3609.0957              63.554               12.627       
       3627.1412             63.5643               12.529       
       3645.2769             63.5738               12.431       
       3663.5033             63.5826               12.335       
       3681.8208             63.5908               12.239       
       3700.2299             63.5983               12.144       
       3718.7311             63.6052               12.05        
       3737.3247             63.6115               11.956       
       3756.0114             63.6172               11.864       
       3774.7914             63.6224               11.772       
       3793.6654             63.6271               11.681       
       3812.6337             63.6313               11.591       
       3831.6969             63.6349               11.502       
       3850.8554             63.6885               11.413       
       3870.1096             63.6917               11.323       
       3889.4602             63.6941               11.234       
       3908.9075             63.6959               11.146       
        3928.452              63.697               11.058       
       3948.0943             63.6975               10.972       
       3967.8347             63.6975               10.886       
       3987.6739             63.6969                10.8        
        4055.024             64.0956               10.52        
        4334.821             63.9832               9.4779       
        4633.924             63.7889               8.5432       
        4953.664              63.542               7.711        
        5295.467             63.2455               6.9692       
        5660.855             62.8946               6.307        
        6051.453              62.472                5.7         
        6469.004             61.9213               5.1362       
        6915.365             61.1594               4.6345       
        7392.525             59.9548               4.1893       
        7902.609             56.9139               3.7812       
        7909.678             56.8216               3.776        
        8030.745             53.8366               3.6885       
        8063.029             50.3421               3.6658       
        8111.456             53.8428               10.452       
        8232.522             56.8834               10.119       
        8447.89              58.4369               9.5635       
        8739.444              58.615               9.0214       
        8873.211             57.5023               8.805        
        8908.882             55.8405               8.7477       
        8962.389             57.7058               12.075       
        9030.794             58.8604               11.899       
        9096.156             59.4438               11.735       
        9206.316              59.999               11.465       
        9347.229             59.9731               11.132       
        9384.806             59.2505               11.049       
        9441.171             60.3395               12.653       
        9582.084             61.5929               12.348       
        9653.919             61.9877               12.198       
        10320.04             64.0767               10.941       
        11032.12             65.2185               9.8237       
        11793.34             65.9704               8.8246       
        12607.08             66.4794               7.9097       
        13476.97             66.8189               7.0859       
        14406.88             67.0426               6.3487       
        15400.95             67.1849                5.69        
        16463.62             67.3367               5.0967       
        17599.61             67.3708               4.557        
        18813.98             67.4348               4.0737       
        20112.15             67.4038               3.6352       
        21499.88             67.3504               3.2468       
        22983.38             67.2834               2.9024       
        24569.23             67.2083               2.5968       
        26264.5              67.1306               2.3254       
        28076.76             67.0572               2.0677       
        30014.05             66.9602               1.8352       
        32085.02             66.8537               1.6301       
        34298.89             66.7401               1.4491       
        36665.51             66.6184               1.2871       
        39195.43             66.4839               1.1426       
        41899.92             66.3296               1.0121       
        44791.01             66.1395              0.89477       
        47881.59             65.8829              0.79118       
        51185.42             65.4662              0.70001       
        54505.34             64.3897              0.62421       
        54717.21             64.2184              0.61983       
        55339.61             63.2423              0.60722       
        55562.08             61.8682              0.60281       
        55895.79             63.2566               3.3013       
        56730.05             64.5109               3.2271       
        58492.7              65.3995               3.079        
        62528.7              66.2164               2.765        
        66843.18             66.6288               2.4787       
        71455.36             66.8827               2.2211       
        76385.78             67.0512               1.989        
        81656.4              67.1685               1.7786       
        87290.69             67.2458               1.5856       
        93313.74             67.2943               1.4137       
        99752.39             67.3236               1.2606       
        106635.3             67.3395               1.1242       
        113993.1             67.3751               1.0012       
        121858.7             67.3719              0.88923       
        130266.9             67.3624              0.78989       
        139255.3             67.3488              0.70172       
        148864.0             67.3325              0.62345       
        159135.6             67.3146              0.55395       
        170115.9             67.2959              0.49225       
        181853.9             67.2768              0.43746       
        194401.8             67.2578              0.38879       
        207815.6              67.239              0.34557       
        222154.8             67.2208              0.30718       
        237483.5             67.2031              0.27307       
        253869.9             67.1863              0.24378       
        271386.9             67.1709               0.2179       
        290112.6             67.1568              0.19478       
        310130.4             67.1436              0.17413       
        331529.4             67.1315              0.15567       
        354404.9             67.1203              0.13919       
        378858.8             67.1099              0.12445       
        405000.1             67.1004              0.11128       
        432945.1             67.0916              0.099514      
