# In
# Form Factors from Chantler Tables
# DOI: https://dx.doi.org/10.18434/T4HS32
# automatically retrived 2019-02-28 using URL https://physics.nist.gov/cgi-bin/ffast/ffast.pl

# For f_rel the second term, which is 3/5th of the Cromer-Liberman value, is used as suggested by Chantler.
# Real and imaginary part of the formfactors are: f'(E)=f1(E)+f_rel+f_NT and f''(E)=f2(E)
# see also original publication:  https://doi.org/10.1063/1.555974

# Z = 49
# f_rel = -0.3126 e/atom  (Relativistic correction estimate)
# f_NT = -0.011471 e/atom (Nuclear Thomson correction)


#        E (eV)            f1 (e/atom)          f2 (e/atom)     
         10.69               2.10675                0.0         
        11.42761             1.92675                0.0         
        12.21612              1.7038                0.0         
        13.05903             1.41977                0.0         
        13.9601              1.03965                0.0         
        14.92335             0.473339               0.0         
         15.876             -0.644411               0.0         
        15.95306            -0.837616               0.0         
         16.119              -1.58291               0.0         
        16.1838              -2.59561               0.0         
         16.281              -1.65847              1.931        
         16.524             -0.906518              1.9665       
        17.05382            -0.503092              2.0444       
        18.23053             -0.4089               2.2269       
        19.48844            -0.632308              2.5294       
        20.83314            -0.968126              2.9881       
        22.27063             -1.34282              3.6169       
        23.8073              -1.70181              4.4309       
        25.45001             -1.98858              5.4388       
        27.20606             -2.14107              6.6361       
        29.08327             -2.09479              7.9989       
        31.09002             -1.79013              9.4806       
        33.23523             -1.18182              11.013       
        35.52846            -0.247938              12.51        
        37.97993             1.00374               13.88        
        40.60054             2.53426               15.036       
        43.40198             4.27733               15.908       
        46.39671             6.14773               16.45        
        49.59809             8.01761               16.647       
        53.02035             9.86577               16.513       
        56.67876             11.5783               16.084       
        60.58959             13.0912               15.414       
        64.77028             14.3529               14.565       
        69.23942             15.3047               13.597       
        74.01695              15.764               12.568       
         75.852              15.5786               12.186       
         77.013              14.8156               11.95        
        77.3226              13.7034               11.888       
         77.787              15.0356               14.087       
         78.948              16.2971               13.725       
        79.12411             16.4066               13.672       
        84.58368             18.0342               12.163       
        90.41995             18.6695               10.863       
        96.65893             18.9771               9.7759       
        103.3284             19.1093               8.8509       
        110.4581             19.1198               8.0593       
        118.0797              19.003               7.3815       
        119.462              18.9541               7.2738       
        121.2905             18.8183               7.1376       
        121.7781             18.6749               7.1024       
        122.5095             18.8039               7.3213       
        124.338              18.9026               7.2014       
        126.2272              18.931               7.084        
        134.9368             18.9234               6.6167       
        144.2475             18.8536               6.2239       
        154.2005              18.758               5.8934       
        164.8404             18.6457               5.6158       
        176.2144             18.5194               5.3826       
        188.3732             18.3786               5.186        
        201.3709             18.2195               5.0191       
        215.2655             18.0359               4.8758       
        230.1188             17.8183               4.7503       
        245.997              17.5604               4.6379       
        262.9708             17.2294               4.5342       
        281.1158             16.8057               4.4356       
        300.5128             16.2501               4.3391       
        321.2482             15.5051               4.2591       
        343.4143             14.4769               4.1793       
        367.1099             12.9744               4.0943       
        392.4405             10.5627               4.0036       
        419.5189             5.77615               3.9067       
        434.238             -0.231978              3.8542       
        440.8845             -7.80538              3.8306       
        441.784              -10.3777              3.8274       
        442.6569             -15.4694              3.8243       
        445.3155             -9.57113              17.656       
        448.4657             -8.22734              17.68        
        448.546              -8.26674              17.681       
        450.3492             -11.8403              17.695       
        451.962              -8.09054              27.173       
        453.054              -5.57207              27.187       
        459.816              0.983374              27.272       
        479.4098             8.30071               27.512       
        512.4891             14.6157               27.734       
        547.8508             19.1024               27.329       
        585.6525             22.4492               26.443       
        626.0625             24.6655               25.263       
        651.014              24.9558               24.496       
        660.9785             23.9656               24.189       
        663.6357             22.3863               24.108       
        667.6215             24.2457               27.294       
        669.2609             24.7328               27.245       
        677.586              26.0673               26.995       
        688.156              26.9478               26.681       
        698.689              27.1941               26.373       
        701.4978             26.6741               26.292       
        705.711              27.7002               27.594       
        715.4399             28.9399               27.322       
        716.244              29.0168                27.3        
        764.8052             32.2695               25.935       
        809.088              33.9638               24.513       
        817.5768             34.0589               24.251       
        821.472              33.9818               24.132       
        824.7744             33.5525               24.032       
        829.728              34.2947               24.967       
        842.112              35.2159               24.598       
        873.9896             36.6029               23.685       
        934.2948              38.453               22.11        
        998.7612             40.0262               20.631       
        1067.676             41.3313               18.95        
        1141.345              42.213               17.387       
        1220.098             42.8776               15.906       
        1304.285             43.3582               14.538       
        1394.281             43.7113               13.29        
        1490.486             43.9566               12.14        
        1593.329             44.1135               11.086       
        1703.269             44.2037               10.13        
        1820.795             44.2438               9.2342       
        1946.43              44.1999               8.371        
        2080.733             44.0835               7.6005       
        2224.304              43.911               6.912        
        2377.781             43.6841               6.2955       
        2541.848             43.4025               5.7429       
        2717.235             43.0533               5.2385       
        2904.724             42.6007               4.7633       
        3105.15              41.9395               4.279        
        3319.406             40.8316               3.8064       
        3548.445             38.6509               3.3869       
        3655.498             36.3248               3.2169       
        3711.449             32.8236               3.1337       
        3726.37              28.8247               3.1121       
        3748.75              32.7064               10.81        
        3793.288              35.574               10.551       
        3804.702              35.917               10.487       
        3859.24              36.7476               10.186       
        3918.31              36.0579               9.8767       
        3934.062             34.3002               9.8038       
        3957.69              36.5333               13.528       
        4016.76              38.8109               13.157       
        4055.024             39.5586               12.926       
        4152.75              40.6024               12.377       
        4216.313             40.4916               12.056       
        4233.263             39.7108               11.973       
        4258.688             40.8706               13.698       
        4322.25              42.2127               13.387       
        4334.821             42.3881               13.327       
        4633.924             44.8579               12.054       
        4953.664             46.2849               10.916       
        5295.467             47.2544               9.8417       
        5660.855              47.927               8.8515       
        6051.453             48.3927               7.9492       
        6469.004             48.7137               7.1376       
        6915.365             48.9322               6.4106       
        7392.525             49.0788               5.7615       
        7902.609             49.2898               5.1709       
        8447.89              49.3396               4.6378       
        9030.794             49.4159               4.1462       
        9653.919             49.3952               3.6763       
        10320.04             49.3405               3.2627       
        11032.12             49.2665               2.8984       
        11793.34             49.1806               2.5771       
        12607.08              49.087               2.2933       
        13476.97             48.9881               2.0411       
        14406.88              48.885               1.8179       
        15400.95             48.7786               1.6207       
        16463.62             48.6691               1.4441       
        17599.61             48.5527               1.2838       
        18813.98             48.4256               1.1395       
        20112.15             48.2806               1.0092       
        21499.88              48.109               0.8945       
        22983.38             47.8919              0.79358       
        24569.23              47.583              0.70468       
        26264.5              47.0178              0.62629       
        27381.1              46.0767              0.57897       
        27800.2               44.811              0.56192       
        27911.96             43.2899              0.55751       
        28076.76              44.812               3.5483       
        28079.6              44.8324               3.5477       
        28498.7              46.2279               3.4601       
        30014.05             47.5892               3.172        
        32085.02             48.2836               2.8394       
        34298.89             48.6701               2.5429       
        36665.51             48.9207               2.2763       
        39195.43             49.0881               2.0305       
        41899.92               49.2                1.8103       
        44791.01             49.2746               1.6133       
        47881.59              49.323               1.4372       
        51185.42             49.3526               1.2802       
        54717.21             49.3689               1.1402       
        58492.7              49.4076               1.0121       
        62528.7              49.4035              0.89714       
        66843.18             49.3931              0.79529       
        71455.36             49.3788              0.70507       
        76385.78             49.3619              0.62514       
        81656.4              49.3449              0.55344       
        87290.69              49.326              0.48826       
        93313.74             49.3055               0.4308       
        99752.39             49.2849              0.38012       
        106635.3             49.2645              0.33543       
        113993.1             49.2447              0.29601       
        121858.7             49.2257              0.26122       
        130266.9             49.2077               0.2304       
        139255.3             49.1906              0.20323       
        148864.0             49.1745              0.17927       
        159135.6             49.1595              0.15814       
        170115.9             49.1456              0.13952       
        181853.9             49.1326              0.12309       
        194401.8             49.1206               0.1086       
        207815.6             49.1096              0.09582       
        222154.8             49.0995              0.084549      
        237483.5             49.0902              0.074607      
        253869.9             49.0817              0.065837      
        271386.9             49.0739               0.0581       
        290112.6             49.0668              0.051275      
        310130.4             49.0603              0.045253      
        331529.4             49.0545              0.039939      
        354404.9             49.0491              0.035251      
        378858.8             49.0443              0.031115      
        405000.1             49.0399              0.027464      
        432945.1             49.0359              0.024243      
