# Ir
# Form Factors from Chantler Tables
# DOI: https://dx.doi.org/10.18434/T4HS32
# automatically retrived 2019-02-27 using URL https://physics.nist.gov/cgi-bin/ffast/ffast.pl
#
# Z = 77
# f_rel = -1.6105 e/atom  (Relativistic correction estimate)
# f_NT = -0.016921 e/atom (Nuclear Thomson correction)


#        E (eV)            f1 (e/atom)          f2 (e/atom)     
        6.717466             4.56877                0.0         
        6.820284             4.16587                0.0         
        6.847702             3.73576                0.0         
        6.88883              4.14282              0.81569       
        6.991648             4.45737              0.80003       
        7.901491             4.03188               0.6995       
        8.022432             3.53288              0.69891       
        8.054683              2.9688              0.69931       
        8.103059             3.53226               1.7893       
         8.224               3.99314               1.7635       
         10.69               3.38848               2.2596       
        11.42761             2.96561               2.763        
        12.21612             2.55014               3.4451       
        13.05903             2.18886               4.3234       
        13.9601              1.94176               5.4058       
        14.92335             1.88002               6.6815       
        15.95306             2.07886               8.113        
        17.05382              2.6057               9.6315       
        18.23053             3.50548               11.138       
        19.48844             4.78653               12.515       
        20.83314             6.44486               13.638       
        22.27063             8.33051               14.402       
        23.8073              10.3573               14.736       
        25.45001             12.4238               14.616       
        27.20606             14.3236               14.069       
        29.08327             15.9807               13.163       
        31.09002             17.3146               11.994       
        33.23523             18.2867               10.67        
        35.52846             18.8911               9.2918       
        37.97993             19.1469               7.9469       
        40.60054             19.0841               6.6989       
        43.40198             18.7149               5.5846       
        46.39671             17.9644               4.619        
         49.49               16.1569               3.8261       
        49.59809              16.018               3.8017       
        50.2475              14.4719               3.6588       
        50.4495              12.5153               3.6158       
        50.7525              14.5315               7.3654       
         51.51               16.2312               7.078        
        53.02035             17.2269               6.5492       
        56.67876             17.6944               5.4755       
         59.29               17.3548               4.8462       
        60.1975              16.9764               4.6499       
        60.4395              16.6584               4.5994       
        60.58959             16.6908               5.0898       
        60.8025              16.8392               5.0424       
         61.71               16.7342               4.8471       
         61.74               16.7231               4.8408       
         62.132               16.527               4.7598       
         62.685              15.9261               4.6488       
         62.937              14.9598               4.5995       
         63.083              15.0907               6.4019       
        63.3366              15.7433               6.3493       
         63.717              16.3888               6.6245       
         64.26               16.8506               6.5117       
         64.668              17.0671               6.4291       
        64.77028             17.1121               6.4087       
        69.23942             17.9097               5.6306       
        74.01695             18.0316               4.985        
        79.12411             17.8796               4.4354       
        84.58368             17.5331               3.9991       
        90.41995             17.0275               3.696        
         93.296              16.7328               3.6047       
         94.724              16.5559               3.5729       
        95.1048              16.4751               3.5659       
         95.676              16.4603               3.6404       
        96.65893             16.3907               3.6286       
         97.104              16.3524               3.6245       
        103.3284             15.7408               3.6506       
        110.4581             14.9948               3.8583       
        118.0797             14.1999               4.2715       
        126.2272             13.3897               4.9107       
        134.9368             12.6056               5.7993       
        144.2475             11.8996               6.9456       
        154.2005             11.3326               8.3499       
        164.8404             10.9631               9.9997       
        176.2144             10.8566               11.853       
        188.3732             11.1168               13.856       
        201.3709             11.7275               15.936       
        215.2655             12.6646               18.011       
        230.1188             13.9679               19.993       
        245.997              15.6081               21.797       
        262.9708             17.5168               23.315       
        281.1158             19.5218               24.462       
        289.002              20.2676               24.82        
        293.4255             20.4939               24.987       
        294.6051             20.3212               25.027       
        296.3745             20.7932               25.669       
        300.5128             21.4565               25.82        
        300.798              21.4938               25.829       
        305.172              22.0091               25.968       
        309.843              22.3954               26.095       
        311.0886             22.3178               26.126       
        312.957              22.7603               26.615       
        317.628              23.4958               26.729       
        321.2482             23.9718               26.805       
        343.4143              26.506               27.073       
        367.1099             28.8296               27.057       
        392.4405             30.9648               26.807       
        419.5189             32.8844               26.369       
        448.4657             34.5337               25.788       
        479.4098             35.6763               25.103       
        484.414              35.7171               24.989       
        491.8285             35.3653               24.819       
        493.8057             34.6352               24.774       
        496.7715              35.591               26.311       
         500.0               37.4872               26.241       
         502.5               37.7853               26.186       
        505.0125             38.0335               26.131       
       507.53756             38.2526               26.076       
       510.07525             38.4523               26.02        
       512.62563             38.6381               25.964       
       515.18875             38.8133               25.908       
        517.7647             38.9802               25.852       
       520.35352             39.1402               25.795       
       522.95529             39.2943               25.738       
       525.57007             39.4434               25.681       
       528.19792              39.588               25.624       
       530.83891             39.7286               25.566       
        533.4931             39.8656               25.508       
       536.16057             39.9991               25.45        
       538.84137             40.1295               25.392       
       541.53558             40.2568               25.333       
       544.24325             40.3811               25.274       
       546.96447             40.5024               25.215       
       549.69929             40.6207               25.156       
       552.44779             40.7359               25.097       
       555.21003             40.8478               25.037       
       557.98608             40.9559               24.977       
       560.77601             41.0597               24.917       
       563.57989             41.1583               24.857       
       566.39779             41.2499               24.797       
       569.22978             41.3313               24.736       
       572.07593             41.3942               24.675       
        574.9363             41.4089               24.614       
       576.26318             41.3485               24.586       
       577.81099             41.3893               24.925       
       577.93677             41.4134               24.923       
       580.70004              41.693               24.866       
       583.60354             41.8739               24.806       
       586.52156             42.0278               24.746       
       589.45417             42.1688               24.686       
       592.40144              42.302               24.626       
       595.36345             42.4297               24.566       
       598.34026             42.5534               24.505       
       601.33196             42.6736               24.444       
       604.33862             42.7911               24.384       
       607.36032              42.906               24.323       
       610.39712             43.0188               24.262       
        613.4491             43.1295                24.2        
       616.51635             43.2383               24.139       
       619.59893             43.3453               24.078       
       622.69693             43.4505               24.016       
       625.81041             43.5541               23.954       
       628.93946              43.656               23.892       
       632.08416             43.7563               23.831       
       635.24458             43.8549               23.768       
        638.4208             43.9518               23.706       
       641.61291             44.0471               23.644       
       644.82097             44.1405               23.582       
       648.04508             44.2321               23.519       
        651.2853             44.3216               23.457       
       654.54173              44.409               23.394       
       657.81444             44.4939               23.331       
       661.10351             44.5762               23.268       
       664.40903             44.6552               23.205       
       667.73107             44.7304               23.142       
       671.06973             44.8008               23.079       
       674.42508             44.8648               23.015       
        677.7972             44.9197               22.952       
       681.18619             44.9601               22.889       
       684.59212             44.9722               22.825       
       688.01508             44.8994               22.761       
       688.99585             44.8169               22.743       
       691.20417             44.8764               23.242       
       691.45515             44.9183               23.237       
       694.91243             45.2283               23.174       
       698.38699             45.4135               23.111       
       701.87893             45.5652               23.048       
       705.38832             45.7008               22.985       
       708.91526             45.8266               22.921       
       712.45984             45.9457               22.858       
       716.02214              46.06                22.794       
       719.60225             46.1705               22.731       
       723.20026             46.2779               22.667       
       726.81626             46.3828               22.604       
       730.45034             46.4855               22.54        
        734.1026             46.5862               22.476       
       737.77311             46.6852               22.412       
       741.46197             46.7827               22.349       
       745.16928             46.8787               22.285       
       748.89513             46.9735               22.221       
       752.63961              47.067               22.157       
        756.4028             47.1594               22.093       
       760.18482             47.2507               22.029       
       763.98574              47.341               21.964       
       767.80567             47.4303                21.9        
        771.6447             47.5187               21.836       
       775.50292             47.6063               21.772       
       779.38044             47.6929               21.707       
       783.27734             47.7787               21.643       
       787.19373             47.8637               21.578       
       791.12969             47.9479               21.514       
       795.08534             48.0314               21.449       
       799.06077             48.1141               21.385       
       803.05607             48.1961               21.32        
       807.07135             48.2773               21.256       
       811.10671             48.3579               21.191       
       815.16224             48.4378               21.126       
       819.23806             48.5171               21.062       
       823.33425             48.5957               20.997       
       827.45092             48.6737               20.932       
       831.58817             48.7511               20.867       
       835.74611              48.828               20.803       
       839.92484             48.9041               20.737       
       844.12447             48.9795               20.671       
       848.34509             49.0541               20.605       
       852.58682             49.1281               20.539       
       856.84975             49.2014               20.474       
        861.134               49.274               20.408       
       865.43967              49.346               20.342       
       869.76687             49.4173               20.276       
        874.1157              49.488               20.21        
       878.48628              49.558               20.144       
       882.87871             49.6275               20.078       
        887.2931              49.709               20.012       
       891.72957             49.7773               19.946       
       896.18822              49.845               19.88        
       900.66916             49.9121               19.814       
        905.1725             49.9787               19.749       
       909.69837             50.0446               19.683       
       914.24686              50.11                19.617       
       918.81809             50.1748               19.551       
       923.41218             50.2391               19.485       
       928.02924             50.3029               19.42        
       932.66939             50.3661               19.354       
       937.33274             50.4365               19.288       
        942.0194             50.4988               19.223       
        946.7295             50.5606               19.157       
       951.46315             50.6219               19.091       
       956.22046             50.6828               19.026       
       961.00156             50.7432               18.96        
       965.80657             50.8031               18.894       
        970.6356             50.8627               18.829       
       975.48878              50.922               18.764       
       980.36623             50.9808               18.698       
       985.26806             51.0392               18.632       
        990.1944             51.0974               18.567       
       995.14537             51.1553               18.501       
       1000.1211             51.2133               18.435       
       1005.1217             51.2831               18.349       
       1010.1473             51.3507               18.263       
        1015.198              51.416               18.177       
        1020.274             51.4793               18.092       
       1025.3754             51.5405               18.007       
       1030.5023             51.5998               17.922       
       1035.6548             51.6573               17.837       
       1040.8331             51.7131               17.753       
       1046.0372             51.7671               17.67        
       1051.2674             51.8196               17.586       
       1056.5238             51.8705               17.503       
       1061.8064             51.9199               17.42        
       1067.1154             51.9679               17.338       
        1072.451             52.0145               17.256       
       1077.8132             52.0598               17.174       
       1083.2023             52.1039               17.093       
       1088.6183             52.1466               17.012       
       1094.0614             52.1882               16.931       
       1099.5317             52.2286               16.851       
       1105.0294             52.2679               16.771       
       1110.5545             52.3062               16.692       
       1116.1073             52.3434               16.613       
       1121.6878             52.3795               16.534       
       1127.2963             52.4147               16.456       
       1132.9328              52.449               16.378       
       1138.5974             52.4825               16.297       
       1144.2904             52.5149               16.211       
       1150.0119             52.5462               16.126       
       1155.7619             52.5762               16.041       
       1161.5407             52.6052               15.957       
       1167.3484             52.6331               15.873       
       1173.1852             52.6598               15.79        
       1179.0511             52.6855               15.707       
       1184.9464             52.7099               15.616       
       1190.8711             52.7325               15.524       
       1196.8254             52.7535               15.427       
       1202.8096             52.7725               15.331       
       1208.8236             52.7896               15.235       
       1214.8677              52.805               15.141       
       1220.9421             52.8186               15.047       
       1227.0468             52.8305               14.954       
        1233.182             52.8407               14.861       
       1239.3479             52.8493               14.77        
       1245.5447             52.8564               14.679       
       1251.7724             52.8616               14.583       
       1258.0312             52.8649               14.488       
       1264.3214             52.8663               14.393       
        1270.643             52.8657                14.3        
       1276.9962             52.8632               14.207       
       1283.3812              52.859               14.115       
       1289.7981             52.8529               14.023       
       1296.2471              52.845               13.933       
       1302.7283             52.8354               13.843       
        1309.242              52.824               13.754       
       1315.7882             52.8109               13.666       
       1322.3671             52.7961               13.578       
        1328.979             52.7796               13.492       
       1335.6239             52.7614               13.406       
        1342.302             52.7416               13.321       
       1349.0135             52.7201               13.236       
       1355.7586             52.6969               13.152       
       1362.5374              52.672               13.069       
        1369.35              52.6455               12.987       
       1376.1968             52.6173               12.905       
       1383.0778             52.5874               12.824       
       1389.9932             52.5558               12.744       
       1396.9431             52.5226               12.665       
       1403.9278             52.4876               12.586       
       1410.9475             52.4509               12.507       
       1418.0022             52.4125               12.43        
       1425.0922             52.3724               12.353       
       1432.2177             52.3304               12.277       
       1439.3788             52.2867               12.201       
       1446.5757             52.2412               12.126       
       1453.8086             52.1938               12.052       
       1461.0776             52.1445               11.978       
        1468.383             52.0934               11.905       
       1475.7249             52.0403               11.832       
       1483.1035             51.9901               11.76        
        1490.519             51.9331               11.689       
       1497.9716              51.874               11.618       
       1505.4615             51.8128               11.548       
       1512.9888             51.7494               11.478       
       1520.5537             51.6839               11.409       
       1528.1565             51.6161               11.341       
       1535.7973              51.546               11.273       
       1543.4763             51.4735               11.206       
       1551.1937             51.3985               11.139       
       1558.9496             51.3211               11.073       
       1566.7444              51.241               11.007       
       1574.5781             51.1583               10.942       
        1582.451             51.0728               10.877       
       1590.3633             50.9844               10.813       
       1598.3151             50.8931               10.749       
       1606.3066             50.7987               10.686       
       1614.3382             50.7011               10.624       
       1622.4099             50.6002               10.562       
       1630.5219             50.4959                10.5        
       1638.6745              50.388               10.439       
       1646.8679             50.2763               10.378       
       1655.1022             50.1608               10.318       
       1663.3777             50.0412               10.259       
       1671.6946             49.9173                10.2        
       1680.0531              49.789               10.141       
       1688.4534              49.656               10.083       
       1696.8956             49.5181               10.025       
       1705.3801             49.3751               9.9678       
        1713.907             49.2266               9.911        
       1722.4766             49.0723               9.8546       
       1731.0889             48.9119               9.7987       
       1739.7444             48.7495               9.7432       
       1748.4431             48.5759               9.6882       
       1757.1853              48.395               9.6336       
       1765.9712             48.2064               9.5794       
       1774.8011             48.0095               9.5257       
       1783.6751             47.8037               9.4724       
       1792.5935             47.5885               9.4194       
       1801.5565              47.363               9.3669       
       1810.5642             47.1265               9.3147       
       1819.6171              46.878               9.263        
       1828.7151             46.6166               9.2116       
       1837.8587              46.341               9.1607       
        1847.048             46.0499               9.1101       
       1856.2833             45.7419                9.06        
       1865.5647             45.4151               9.0102       
       1874.8925             45.0674               8.9608       
        1884.267             44.6965               8.9118       
       1893.6883             44.2995               8.8632       
       1903.1567             43.8729               8.8149       
       1912.6725             43.4125               8.7671       
       1922.2359             42.9132               8.7195       
       1931.8471             42.3686               8.6724       
       1941.5063             41.7703               8.6256       
       1951.2138             41.1078               8.5791       
       1960.9699             40.3666               8.5331       
       1970.7747             39.5267               8.4873       
       1980.6286             38.5591               8.4413       
       1990.5318             37.4194               8.3943       
       2000.4844             36.0335               8.3477       
       2010.4868             34.2637               8.3014       
       2020.5393             31.8011               8.2555       
        2030.642             27.6452               8.2099       
       2039.9144             10.7769               8.1686       
       2040.7952             9.32243               25.629       
       2040.8856             10.4675               25.627       
       2050.9992             27.3377               25.448       
       2061.2542             30.6781               25.268       
       2071.5604             32.3347               25.09        
       2081.9182             33.1343               24.913       
       2092.3278             33.2153               24.737       
       2102.7895             32.2773               24.563       
       2113.3034             27.5966               24.39        
       2115.3256             23.0704               24.357       
       2116.8746             23.0261               35.877       
       2123.8699             32.1225               35.705       
       2134.4893             36.1133               35.448       
       2145.1617             38.5261               35.193       
       2155.8875             40.3384               34.939       
        2166.667             41.8173               34.688       
       2177.5003             43.0778               34.438       
       2188.3878             44.1813               34.191       
       2199.3297             45.1648               33.945       
       2210.3264             46.0525               33.701       
        2221.378             46.8616               33.459       
       2232.4849             47.6044               33.219       
       2243.6473             48.2902               32.981       
       2254.8656             48.9263               32.744       
       2266.1399             49.5183               32.51        
       2277.4706              50.071               32.277       
       2288.8579              50.588               32.046       
       2300.3022             51.0723               31.816       
       2311.8037             51.5265               31.588       
       2323.3628             51.9525               31.361       
       2334.9796              52.352               31.136       
       2346.6545             52.7262               30.913       
       2358.3878             53.0763               30.691       
       2370.1797             53.4029               30.471       
       2382.0306             53.7065               30.252       
       2393.9407              53.987               30.036       
       2405.9104             54.2442               29.821       
        2417.94              54.4774               29.607       
       2430.0297             54.6854               29.395       
       2442.1798             54.8659               29.185       
       2454.3907              55.016               28.976       
       2466.6627             55.1307               28.769       
        2478.996             55.2025               28.564       
        2491.391             55.2192               28.36        
       2503.8479              55.159               28.157       
       2516.3672              54.979               27.956       
        2528.949             54.5741               27.757       
       2541.5938             53.5405               27.559       
       2548.3176             51.6624               27.455       
       2553.0823             51.6985               32.14        
       2554.3017             52.3543               32.117       
       2567.0732             54.9291               31.877       
       2579.9086             56.0628               31.639       
       2592.8082             56.8583               31.402       
       2605.7722             57.4933               31.168       
       2618.8011             58.0317               30.935       
       2631.8951             58.5039               30.704       
       2645.0545             58.9267               30.475       
       2658.2798             59.3094               30.244       
       2671.5712             59.6553               30.01        
       2684.9291             59.9687               29.791       
       2698.3537             60.2631               29.582       
       2711.8455             60.5404               29.376       
       2725.4047             60.8014               29.172       
       2739.0317             61.0473               28.972       
       2752.7269             61.2786               28.773       
       2766.4905             61.4945               28.571       
        2780.323             61.6946               28.372       
       2794.2246             61.8786               28.175       
       2808.1957             62.0453               27.98        
       2822.2367             62.1927               27.787       
       2836.3479             62.3171               27.595       
       2850.5296             62.4121               27.406       
       2864.7823              62.465               27.218       
       2879.1062             62.4469               27.032       
       2893.5017              62.267               26.847       
       2904.5696             61.6647               26.706       
       2907.9692             60.6972               26.663       
       2912.8303             61.7623               28.444       
       2922.5091             62.6103               28.302       
       2937.1216             63.2269               28.091       
       2951.8072             63.6512               27.881       
       2966.5662             63.9929               27.674       
       2981.3991             64.2848               27.468       
       2996.3061             64.5374               27.264       
       3011.2876             64.7643               27.057       
        3026.344              64.973               26.853       
       3041.4758             65.1638               26.653       
       3056.6831             65.3382               26.455       
       3071.9666             65.4971               26.261       
       3087.3264             65.6398               26.07        
        3102.763             65.7637               25.88        
       3118.2768             65.8635               25.692       
       3133.8682              65.928               25.506       
       3149.5376             65.9274               25.321       
       3165.2853             65.7257               25.138       
       3167.1623             65.6566               25.117       
       3180.2379             65.7879               26.078       
       3181.1117             65.8414               26.068       
       3197.0172             66.4097               25.885       
       3213.0023             66.7523               25.703       
       3229.0673              67.027               25.523       
       3245.2127              67.267               25.344       
       3261.4387              67.485               25.166       
       3277.7459             67.6875               24.989       
       3294.1347              67.878               24.814       
       3310.6053             68.0589               24.639       
       3327.1584             68.2316               24.464       
       3343.7941             68.3965               24.289       
       3360.5131             68.5549               24.115       
       3377.3157             68.7073               23.942       
       3394.2023             68.8543               23.771       
       3411.1733             68.9964                23.6        
       3428.2291             69.1339               23.431       
       3445.3703              69.267               23.262       
       3462.5971             69.3961               23.094       
       3479.9101             69.5213               22.928       
       3497.3097             69.6428               22.762       
       3514.7962             69.7608               22.597       
       3532.3702             69.8754               22.434       
       3550.0321             69.9869               22.271       
       3567.7822             70.0952               22.109       
       3585.6211             70.2005               21.949       
       3603.5492             70.3028               21.789       
        3621.567             70.4024               21.631       
       3639.6748             70.4993               21.473       
       3657.8732             70.5935               21.317       
       3676.1626             70.6851               21.161       
       3694.5434             70.7742               21.007       
       3713.0161             70.8609               20.854       
       3731.5812             70.9451               20.702       
       3750.2391              71.027               20.551       
       3768.9903             71.1066               20.401       
       3787.8352              71.184               20.254       
       3806.7744             71.2596               20.108       
       3825.8083             71.3337               19.964       
       3844.9373             71.4062               19.821       
        3864.162             71.4771               19.679       
       3883.4828             71.5466               19.538       
       3902.9002             71.6147               19.399       
       3922.4147             71.6813               19.26        
       3942.0268             71.7466               19.123       
       3961.7369             71.8106               18.986       
       3981.5456             71.8734               18.851       
       4001.4533             71.9351               18.717       
       4021.4606             71.9956               18.584       
       4041.5679              72.055               18.453       
       4061.7757             72.1135               18.322       
       4082.0846             72.3705               18.192       
        4102.495             72.4277               18.055       
       4123.0075              72.483               17.919       
       4143.6226             72.5366               17.784       
       4164.3407             72.5884               17.649       
       4185.1624             72.6385               17.516       
       4206.0882             72.6871               17.385       
       4227.1186             72.7343               17.254       
       4248.2542             72.9168               17.12        
       4269.4955             72.9612               16.987       
        4290.843             73.0036               16.855       
       4312.2972             73.0444               16.723       
       4333.8587             73.0836               16.594       
        4355.528             73.1212               16.465       
       4377.3056             73.1574               16.337       
       4399.1921             73.1921               16.211       
       4421.1881             73.2255               16.086       
        4443.294             73.2577               15.962       
       4465.5105             73.2886               15.839       
       4487.8381             73.3184               15.717       
       4510.2772              73.347               15.596       
       4532.8286             73.3745               15.477       
       4555.4928              73.401               15.358       
       4578.2702             73.4265               15.241       
       4601.1616              73.451               15.125       
       4624.1674             73.4745               15.009       
       4647.2882             73.4972               14.895       
       4670.5247              73.519               14.782       
       4693.8773             73.5399               14.67        
       4717.3467              73.56                14.559       
       4740.9334             73.5794               14.449       
       4764.6381              73.598               14.34        
       4788.4613             73.6158               14.231       
       4812.4036             73.6329               14.124       
       4836.4656             73.6494               14.018       
       4860.6479             73.6652               13.913       
       4884.9512             73.6803               13.809       
       4909.3759             73.6949               13.705       
       4933.9228             73.7088               13.603       
       4958.5924             73.7222               13.501       
       4983.3854             73.7351               13.401       
       5008.3023             73.7474               13.301       
       5033.3438             73.7592               13.202       
       5058.5105             73.7706               13.104       
       5083.8031             73.7816               13.007       
       5109.2221             73.8934               12.91        
       5134.7682             73.9041               12.81        
       5160.4421              73.914               12.712       
       5186.2443              73.923               12.614       
       5212.1755             73.9313               12.517       
       5238.2364             73.9388               12.422       
       5264.4276             73.9457               12.326       
       5290.7497             73.9518               12.232       
       5317.2034             73.9574               12.139       
       5343.7895             73.9623               12.046       
       5370.5084             73.9667               11.955       
       5397.3609             73.9705               11.864       
       5424.3477             73.9737               11.774       
       5451.4695             73.9764               11.684       
       5478.7268             73.9787               11.596       
       5506.1205             73.9804               11.508       
       5533.6511             73.9817               11.421       
       5561.3193             73.9826               11.334       
       5589.1259              73.983               11.248       
       5617.0716             73.9829               11.162       
       5645.1569             73.9824               11.078       
       5673.3827             73.9814               10.994       
       5701.7496             73.9801               10.91        
       5730.2584             73.9783               10.828       
       5758.9096             73.9762               10.746       
       5787.7042             73.9737               10.665       
       5816.6427             73.9709               10.585       
       5845.7259             74.0126               10.503       
       5874.9546             74.0093               10.422       
       5904.3293             74.0054               10.341       
        5933.851              74.001               10.261       
       5963.5202             73.9962               10.182       
       5993.3378             73.9908               10.103       
       6023.3045             73.9849               10.025       
        6053.421             73.9786               9.9478       
       6083.6882             73.9718               9.8712       
       6114.1066             73.9646               9.7953       
       6144.6771              73.957               9.7201       
       6175.4005              73.949               9.6456       
       6206.2775             73.9406               9.5718       
       6237.3089             73.9318               9.4985       
       6268.4954             73.9226               9.426        
       6299.8379             73.9131               9.3541       
       6331.3371             73.9032               9.2828       
       6362.9938             73.9102               9.2118       
       6394.8088             73.8998               9.1412       
       6426.7828             73.8889               9.0712       
       6458.9167             73.8777               9.0018       
       6491.2113             73.8661               8.933        
       6523.6674             73.8541               8.8649       
       6556.2857             73.8417               8.7973       
       6589.0671              73.829               8.7303       
       6622.0125              73.816               8.6639       
       6655.1225             73.8026               8.5981       
       6688.3981             73.7889               8.5329       
       6721.8401             73.7748               8.4682       
       6755.4493             73.7604               8.4041       
       6789.2266             73.7457               8.3405       
       6823.1727             73.7307               8.2775       
       6857.2886             73.7153               8.2151       
        6891.575             73.6996               8.1532       
       6926.0329             73.6836               8.0918       
       6960.6631             73.6673               8.031        
       6995.4664             73.6507               7.9707       
       7030.4437             73.6338               7.9109       
       7065.5959             73.6166               7.8516       
       7100.9239              73.599               7.7928       
       7136.4285             73.5812               7.7346       
       7172.1107              73.563               7.6768       
       7207.9712             73.5445               7.6196       
       7244.0111             73.5258               7.5628       
       7280.2311             73.5067               7.5066       
       7316.6323             73.4873               7.4508       
       7353.2155             73.4676               7.3955       
       7389.9815             73.4476               7.3406       
       7426.9314             73.4273               7.2863       
       7464.0661             73.4066               7.2324       
       7501.3864             73.3857               7.1789       
       7538.8934             73.3644               7.1259       
       7576.5878             73.3428               7.0734       
       7614.4708             73.3208               7.0213       
       7652.5431             73.2986               6.9697       
       7690.8058              73.276               6.9185       
       7729.2599              73.253               6.8677       
       7767.9062             73.2297               6.8174       
       7806.7457             73.2061               6.7675       
       7845.7794             73.1821               6.718        
       7885.0083             73.1578               6.6689       
       7924.4334             73.1331               6.6203       
       7964.0555              73.108               6.5721       
       8003.8758             73.0826               6.5242       
       8043.8952             73.0567               6.4768       
       8084.1147             73.0305               6.4298       
       8124.5352             73.0039               6.3831       
       8165.1579             72.9768               6.3369       
       8205.9837             72.9494               6.291        
       8247.0136             72.9216               6.2456       
       8288.2487             72.8933               6.2005       
       8329.6899             72.8646               6.1558       
       8371.3384             72.8354               6.1115       
       8413.1951             72.8058               6.0675       
        8455.261             72.7758               6.0239       
       8497.5373             72.7453               5.9807       
        8540.025             72.7143               5.9378       
        9030.794             72.3985               5.4576       
        9653.919             71.7147               4.867        
        10320.04             70.5598               4.346        
        10990.9              67.7771               3.9125       
        11032.12             67.3739               3.8882       
        11159.12             65.0235               3.8127       
        11203.99              61.803               3.7864       
        11271.28              65.001               10.038       
        11439.5              67.8144               9.7835       
        11793.34             69.5633               9.2813       
        12567.62             69.8713               8.3062       
        12607.08             69.7514               8.2608       
        12759.98              68.684               8.087        
        12811.28             67.1004                8.03        
        12888.22             68.7619               11.12        
        13080.58             70.2336               10.842       
        13150.13             70.4517               10.744       
        13351.41             70.4642               10.468       
        13405.08             69.7841               10.396       
        13476.97             70.7259               11.938       
        13485.59             70.8202               11.926       
        13686.87             72.0088               11.656       
        14406.88              73.823               10.762       
        15400.95              75.094               9.6762       
        16463.62             75.8828               8.6962       
        17599.61             76.4106               7.8074       
        18813.98             76.7621               7.0052       
        20112.15             76.9951               6.2881       
        21499.88             77.1466               5.6474       
        22983.38             77.3024               5.0712       
        24569.23             77.3502               4.5513       
        26264.5              77.4048               4.0864       
        28076.76             77.4354               3.6367       
        30014.05             77.3918               3.2288       
        32085.02             77.3244               2.869        
        34298.89             77.2424               2.5514       
        36665.51              77.151               2.2709       
        39195.43             77.0532               2.0228       
        41899.92             76.9504               1.8034       
        44791.01             76.8433               1.609        
        47881.59              76.731               1.4365       
        51185.42             76.6111               1.2811       
        54717.21             76.4779               1.143        
        58492.7              76.3242               1.0186       
        62528.7              76.1313              0.90442       
        66843.18             75.8591              0.80341       
        71455.36              75.372              0.71368       
        74588.78             74.5466              0.66151       
        75730.45             73.4668              0.64402       
        76034.89             72.1743              0.63949       
        76385.78             73.2084               3.1835       
        76491.56             73.4802               3.1769       
        77633.22             74.6592               3.1075       
        81656.4               75.803               2.874        
        87290.69             76.4034               2.5766       
        93313.74             76.7318               2.3102       
        99752.39             76.9419               2.0719       
        106635.3             77.0807               1.8524       
        113993.1             77.1722               1.6564       
        121858.7             77.2324               1.4813       
        130266.9             77.2708               1.325        
        139255.3             77.2938               1.1853       
        148864.0             77.3058               1.0604       
        159135.6             77.3357              0.94708       
        170115.9             77.3314              0.84519       
        181853.9             77.3223              0.75434       
        194401.8             77.3099              0.67332       
        207815.6             77.2953              0.60105       
        222154.8             77.2794               0.5366       
        237483.5             77.2627               0.4791       
        253869.9             77.2457              0.42779       
        271386.9             77.2287              0.38202       
        290112.6             77.2119              0.34117       
        310130.4             77.1954              0.30471       
        331529.4             77.1791              0.27235       
        354404.9              77.164              0.24539       
        378858.8             77.1505              0.22112       
        405000.1             77.1381              0.19926       
        432945.1             77.1268              0.17958       
