# La
# Form Factors from Chantler Tables
# DOI: https://dx.doi.org/10.18434/T4HS32
# automatically retrived 2019-02-28 using URL https://physics.nist.gov/cgi-bin/ffast/ffast.pl

# For f_rel the second term, which is 3/5th of the Cromer-Liberman value, is used as suggested by Chantler.
# Real and imaginary part of the formfactors are: f'(E)=f1(E)+f_rel+f_NT and f''(E)=f2(E)
# see also original publication:  https://doi.org/10.1063/1.555974

# Z = 57
# f_rel = -0.4518 e/atom  (Relativistic correction estimate)
# f_NT = -0.012831 e/atom (Nuclear Thomson correction)


#        E (eV)            f1 (e/atom)          f2 (e/atom)     
         10.69               18.7089                0.0         
        11.42761             18.3468                0.0         
        12.21612             17.7981                0.0         
        13.05903             16.8371                0.0         
        13.9601              14.3197                0.0         
         14.112               13.281                0.0         
         14.328              9.70715                0.0         
        14.3856              5.39845                0.0         
         14.472              9.90333               8.4982       
         14.688              13.8687               8.3345       
        14.92335             15.6489               8.1623       
        15.95306              19.055               7.4767       
        17.05382             20.8265               6.7507       
        18.23053             21.9681               5.9723       
        19.48844              22.719               5.2034       
        20.83314              23.199               4.4843       
        22.27063              23.486               3.8371       
        23.8073              23.6361               3.2705       
        25.45001             23.6908               2.7843       
        27.20606             23.6802               2.3731       
        29.08327             23.6248               2.0287       
        31.09002             23.5359               1.7424       
         31.654              23.5047               1.674        
        32.1385              23.4686               1.6189       
        32.2677              23.4467               1.6048       
        32.4615              23.4528               1.6149       
         32.946              23.4432               1.5665       
        33.23523              23.433               1.5389       
        35.52846             23.3376               1.3514       
        37.97993              23.232               1.1995       
        40.60054             23.1224               1.0768       
        43.40198              23.02               0.97787       
        46.39671             22.9042               0.8984       
        49.59809             22.7831              0.83474       
        53.02035             22.6534              0.78385       
        56.67876             22.5101              0.74326       
        60.58959             22.3459              0.71114       
        64.77028             22.1501               0.6862       
        69.23942             21.9053              0.66685       
        74.01695             21.5806              0.65186       
        79.12411             21.1153               0.6402       
        84.58368             20.3664              0.63111       
        90.41995              18.877              0.62394       
        96.65893             13.3358               0.6182       
         96.922              12.6877              0.61799       
        98.4055              4.27129              0.61685       
        98.8011              -7.36267             0.61656       
        99.3945               7.5766               24.131       
        100.878              20.1159               19.837       
        103.3284             26.1204               14.48        
        110.4581              28.34                6.2404       
        118.0797             27.0378               3.3591       
        126.2272             25.9494               2.2914       
        134.9368             25.1633               1.8404       
        144.2475             24.5597               1.6467       
        154.2005             24.0505               1.5839       
        164.8404             23.5728               1.6033       
        176.2144              23.057               1.6852       
        187.572              22.3145               1.8119       
        188.3732             22.2201               1.8222       
        190.443              21.8103               1.8498       
        191.2086              21.301               1.8602       
        192.357              21.7474               2.8253       
        195.228              22.0741               2.8775       
        201.3709             22.1454               2.9952       
        201.684               22.141               3.0014       
        204.771              22.0171               3.0637       
        205.5942             21.8525               3.0806       
        206.829               22.021               3.4333       
        209.916              22.1656               3.5027       
        215.2655              22.244               3.6262       
        230.1188             22.2964               3.9852       
        245.997              22.2928               4.3834       
        262.9708             22.2043               4.8098       
        264.992               22.167                4.86        
        269.048              21.9707               4.9598       
        270.1296             21.7154               4.9863       
        271.752              21.9911               5.541        
        275.808              22.2524               5.6421       
        281.1158              22.414               5.7724       
        300.5128             22.7965               6.2234       
        321.2482             23.1627               6.6495       
        343.4143             23.5533               7.031        
        367.1099             23.9653               7.3528       
        392.4405             24.3836               7.6033       
        419.5189             24.7866               7.7705       
        448.4657              25.14                7.8465       
        479.4098             25.4068               7.8382       
        512.4891              25.549               7.7563       
        547.8508             25.5227               7.6133       
        585.6525             25.2763               7.4219       
        626.0625             24.7077               7.194        
        669.2609             23.6639               6.9402       
        715.4399             21.8056               6.6701       
        764.8052              18.171               6.3909       
        815.066              7.99874               6.1211       
        817.5768              6.8089               6.108        
        827.5415             -1.69126              6.0566       
         831.53              -21.9139              6.0363       
        835.8585             -3.05614              25.206       
        844.2575            -0.129034              24.855       
        847.6515             -4.97044              24.715       
        848.334              -11.2965              24.688       
        852.7425             3.63331               37.187       
         865.47              12.7805               36.387       
        873.9896             16.1223               35.868       
        934.2948              27.56                32.536       
        998.7612              32.828               29.646       
        1067.676             35.5387               26.971       
        1100.932             35.6384               25.83        
        1117.783              34.38                25.284       
        1122.277             32.3952               25.142       
        1129.017             34.7078               29.075       
        1141.345             36.5972               28.607       
        1145.868             37.0034               28.438       
        1180.312             38.6875               27.215       
        1198.378             38.6787               26.665       
        1203.196             37.9519               26.523       
        1210.422             39.1322               28.098       
        1220.098             40.0238               27.793       
        1228.488             40.5402               27.535       
        1304.285             43.0692               25.51        
        1334.074             43.5846               24.842       
        1354.493             43.5695               24.412       
        1359.939              43.108               24.301       
        1368.106             43.8732               25.282       
        1388.526             44.8271               24.877       
        1394.281             45.0197               24.766       
        1490.486              47.286               22.845       
        1593.329             48.8265               20.959       
        1703.269             49.9607               19.183       
        1820.795             50.8126               17.542       
        1946.43               51.444               16.009       
        2080.733             51.8973               14.606       
        2224.304             52.2206               13.34        
        2377.781             52.5442               12.171       
        2541.848             52.7346               11.099       
        2717.235             52.8027               10.131       
        2904.724             52.8464               9.2543       
        3105.15              52.8835               8.3917       
        3319.406             52.7902               7.559        
        3548.445             52.5879               6.7776       
        3793.288             52.2804               6.0781       
        4055.024             51.8694               5.4587       
        4334.821             51.3283               4.9111       
        4633.924              50.585               4.4267       
        4953.664             49.4384               3.9916       
        5295.467             46.9684               3.5875       
        5373.046              45.729               3.5036       
        5455.286             42.5859               3.4185       
        5477.217             38.9711               3.3963       
        5510.113             42.5027               10.377       
        5592.354             45.5088               10.105       
        5660.855              46.39                9.8871       
        5772.788             46.8156               9.5487       
        5861.147              45.894               9.3016       
        5884.71              44.2328               9.2377       
        5920.053             46.1993               12.65        
        6008.412              48.132               12.328       
        6051.453             48.6016               12.176       
        6140.974             49.1977               11.871       
        6234.969             49.1273               11.566       
        6260.034              48.379               11.488       
        6297.632             49.5027               13.155       
        6391.626             50.8069               12.861       
        6469.004             51.4451               12.629       
        6915.365             53.5912               11.409       
        7392.525             54.8511               10.292       
        7902.609             55.6931               9.2671       
        8447.89               56.281               8.3384       
        9030.794             56.7219               7.4904       
        9653.919              56.997               6.6873       
        10320.04             57.1703               5.9756       
        11032.12             57.3491               5.3423       
        11793.34             57.4399               4.7625       
        12607.08             57.4834               4.2378       
        13476.97             57.4549               3.7621       
        14406.88              57.398               3.3427       
        15400.95             57.3236               2.9725       
        16463.62             57.2376               2.6451       
        17599.61             57.1439               2.3557       
        18813.98             57.0451               2.0999       
        20112.15             56.9428               1.8735       
        21499.88             56.8376               1.6731       
        22983.38             56.7295               1.4955       
        24569.23             56.6175               1.3359       
        26264.5               56.498               1.1917       
        28076.76             56.3624               1.0525       
        30014.05             56.1951              0.92569       
        32085.02             55.9805              0.81452       
        34298.89             55.6735               0.7173       
        36665.51             55.1093              0.63221       
        38146.11             54.2292              0.58681       
        38729.98             53.0188              0.57031       
        38885.67             51.5674              0.56603       
        39119.22             53.0359               3.4178       
        39195.43             53.3483               3.4071       
        39703.09             54.3636               3.3377       
        41899.92             55.6912                3.06        
        44791.01             56.3415               2.7431       
        47881.59             56.7055               2.4574       
        51185.42             56.9403               2.1998       
        54717.21             57.0962               1.9636       
        58492.7              57.2003               1.7523       
        62528.7              57.2696               1.5634       
        66843.18             57.3146               1.3947       
        71455.36             57.3424               1.244        
        76385.78             57.3584               1.1096       
        81656.4              57.3969              0.98626       
        87290.69             57.3925               0.873        
        93313.74             57.3815              0.77283       
        99752.39             57.3663              0.68421       
        106635.3             57.3485               0.6058       
        113993.1             57.3291              0.53642       
        121858.7              57.309              0.47503       
        130266.9             57.2887               0.4207       
        139255.3             57.2686              0.37261       
        148864.0              57.249              0.33004       
        159135.6              57.23               0.29236       
        170115.9             57.2119              0.25904       
        181853.9             57.1948              0.22981       
        194401.8             57.1787              0.20389       
        207815.6             57.1638               0.1809       
        222154.8             57.1498              0.16052       
        237483.5             57.1369              0.14244       
        253869.9             57.1249              0.12641       
        271386.9             57.1138              0.11218       
        290112.6             57.1036              0.099565      
        310130.4             57.0942              0.088371      
        331529.4             57.0856              0.07844       
        354404.9             57.0777              0.069628      
        378858.8             57.0705              0.061809      
        405000.1             57.0639              0.054871      
        432945.1             57.0578              0.048714      
