# Lu
# Form Factors from Chantler Tables
# DOI: https://dx.doi.org/10.18434/T4HS32
# automatically retrived 2019-02-27 using URL https://physics.nist.gov/cgi-bin/ffast/ffast.pl
#
# Z = 71
# f_rel = -1.303 e/atom  (Relativistic correction estimate)
# f_NT = -0.015805 e/atom (Nuclear Thomson correction)


#        E (eV)            f1 (e/atom)          f2 (e/atom)     
         6.762               10.9733                0.0         
         6.8655              10.7902                0.0         
         6.8931               10.576                0.0         
         6.9345              10.7961              0.41866       
         7.038               10.9845              0.40834       
         10.69               11.0473              0.27823       
        11.42761             10.9705               0.2819       
        12.21612             10.8782               0.2904       
        13.05903             10.7684              0.30371       
        13.9601              10.6376              0.32202       
        14.92335             10.4815               0.3457       
        15.95306             10.2939              0.37529       
        17.05382             10.0658              0.41148       
        18.23053             9.78414              0.45519       
        19.48844              9.4284              0.50748       
        20.83314             8.84927              0.56964       
        22.27063             8.21276              0.64316       
        23.8073              7.26572              0.72979       
        25.45001             5.62002              0.83149       
        27.20606             1.17691               0.9505       
         27.44              -0.278294             0.96715       
         27.86               -6.41303             0.99751       
         27.972              -13.9079              1.0057       
         28.14               -5.90857              15.849       
         28.56               1.14942               15.393       
        29.08327             4.64754               14.857       
        31.09002              10.259               13.092       
        33.23523             12.8947               11.446       
        35.52846              14.313               9.9275       
        37.97993             15.0174               8.6395       
        40.60054             15.2796               7.6209       
        43.40198             15.2719               6.8706       
        46.39671             15.1082               6.3673       
        49.59809             14.8634               6.0817       
        53.02035             14.5849               5.9838       
         55.664              14.3716               6.0153       
         56.516              14.2925               6.0412       
        56.67876             14.2695               6.0469       
        56.7432              14.2545               6.0493       
         57.084              14.2534               6.106        
         57.936              14.2164               6.1436       
        60.58959              14.074               6.2959       
        64.77028             13.8832               6.622        
        69.23942             13.7405               7.054        
        74.01695             13.6575               7.5802       
        79.12411             13.6432               8.1914       
        84.58368              13.723               8.8798       
        90.41995             13.8739               9.6388       
        96.65893             14.1238               10.463       
         100.0               16.2066               10.906       
         100.5               16.2342               10.973       
        101.0025             16.2624               11.039       
       101.50751             16.2914               11.106       
       102.01505             16.3211               11.173       
       102.52513             16.3515               11.241       
       103.03775             16.3826               11.309       
       103.55294             16.4144               11.377       
        104.0707              16.447               11.446       
       104.59106             16.4804               11.514       
       105.11401             16.5145               11.584       
       105.63958             16.5493               11.653       
       106.16778              16.585               11.723       
       106.69862             16.6214               11.793       
       107.23211             16.6587               11.863       
       107.76827             16.6967               11.934       
       108.30712             16.7356               12.005       
       108.84865             16.7753               12.076       
       109.39289             16.8159               12.148       
       109.93986             16.8573               12.219       
       110.48956             16.8997               12.292       
       111.04201             16.9429               12.364       
       111.59722              16.987               12.437       
        112.1552              17.032               12.51        
       112.71598              17.078               12.583       
       113.27956             17.1249               12.656       
       113.84596             17.1727               12.73        
       114.41519             17.2216               12.804       
       114.98726             17.2714               12.879       
        115.5622             17.3223               12.953       
       116.14001             17.3742               13.028       
       116.72071             17.4272               13.104       
       117.30431             17.4812               13.179       
       117.89083             17.5364               13.255       
       118.48029             17.5927               13.331       
       119.07269             17.6501               13.407       
       119.66805             17.7086               13.484       
       120.26639             17.7684               13.561       
       120.86772             17.8294               13.638       
       121.47206             17.8916               13.715       
       122.07942             17.9551               13.793       
       122.68982             18.0199               13.871       
       123.30327              18.086               13.949       
       123.91979             18.1534               14.027       
       124.53939             18.2223               14.106       
       125.16208             18.2926               14.185       
       125.78789             18.3644               14.264       
       126.41683             18.4376               14.344       
       127.04892             18.5124               14.423       
       127.68416             18.5888               14.503       
       128.32258             18.6668               14.583       
       128.96419             18.7465               14.664       
       129.60902             18.8279               14.742       
       130.25706             18.9117               14.772       
       130.90835             18.9951               14.803       
       131.56289              19.078               14.833       
        132.2207             19.1605               14.863       
       132.88181             19.2426               14.892       
       133.54621             19.3244               14.921       
       134.21395             19.4058               14.95        
       134.88502             19.4868               14.978       
       135.55944             19.5675               15.006       
       136.23724             19.6479               15.033       
       136.91842             19.7279               15.06        
       137.60302             19.8076               15.086       
       138.29103             19.8869               15.112       
       138.98249              19.966               15.138       
        139.6774             20.0447               15.163       
       140.37579             20.1231               15.188       
       141.07766             20.2012               15.213       
       141.78305              20.279               15.237       
       142.49197             20.3564               15.26        
       143.20443             20.4336               15.283       
       143.92045             20.5104               15.306       
       144.64005             20.5868               15.329       
       145.36325              20.663               15.35        
       146.09007             20.7388               15.372       
       146.82052             20.8142               15.393       
       147.55462             20.8893               15.413       
       148.29239              20.964               15.433       
       149.03386             21.0384               15.453       
       149.77903             21.1123               15.472       
       150.52792             21.1859               15.491       
       151.28056              21.259               15.509       
       152.03696             21.3317               15.527       
       152.79715              21.404               15.545       
       153.56113             21.4757               15.562       
       154.32894              21.547               15.578       
       155.10058             21.6178               15.594       
       155.87609             21.6881               15.61        
       156.65547             21.7578               15.625       
       157.43875             21.8269               15.639       
       158.22594             21.8955               15.654       
       159.01707             21.9633               15.667       
       159.81215             22.0306               15.68        
       160.61121             22.0971               15.693       
       161.41427             22.1628               15.706       
       162.22134             22.2278               15.717       
       163.03245             22.2919               15.729       
       163.84761             22.3552               15.74        
       164.66685             22.4175               15.75        
       165.49018             22.4789               15.76        
       166.31763             22.5391               15.77        
       167.14922             22.5983               15.779       
       167.98497             22.6562               15.787       
       168.82489             22.7128               15.795       
       169.66902             22.7681               15.803       
       170.51736             22.8236               15.81        
       171.36995             22.8758               15.817       
        172.2268             22.9262               15.823       
       173.08793             22.9747               15.829       
       173.95337             23.0211               15.834       
       174.82314             23.0653               15.839       
       175.69726             23.1071               15.843       
       176.57574             23.1461               15.847       
       177.45862             23.1821               15.85        
       178.34591             23.2148               15.853       
       179.23764             23.2437               15.855       
       180.13383             23.2685               15.857       
        181.0345             23.2885               15.859       
       181.93967              23.303               15.86        
       182.84937             23.3113               15.86        
       183.76362             23.3123               15.86        
       184.68244             23.3048               15.86        
       185.60585             23.2869               15.859       
       186.53388             23.2566               15.858       
       187.46655             23.2107               15.856       
       188.40388             23.1449               15.853       
        189.3459             23.0531               15.851       
       190.29263             22.9251               15.847       
       191.24409             22.7442               15.844       
       192.20031              22.478               15.84        
       193.16131             22.0516               15.835       
       194.12712             21.2081               15.83        
       194.85647             18.9299               15.826       
       195.09776              18.486               20.045       
       195.14351             19.0163               20.037       
       196.07325             21.8997               19.876       
       197.05361             22.8823               19.713       
       198.03888             23.4754               19.555       
       199.02907             23.8829               19.403       
       200.02422             24.1682               19.256       
       201.02434             24.3518               19.114       
       202.02946             24.4274               18.977       
       203.03961             24.3464               18.844       
       204.05481             23.8847               18.715       
       204.62018             22.7717               18.646       
       204.97981             22.9072               21.463       
       205.07508             23.3293               21.441       
       206.10046              25.045               21.211       
       207.13096             25.8196               20.989       
       208.16661             26.3637               20.774       
       209.20745             26.7927               20.567       
       210.25348             27.1494               20.367       
       211.30475             27.4552               20.174       
       212.36128             27.7223               19.988       
       213.42308             27.9584               19.807       
        214.4902             28.1689               19.633       
       215.56265             28.3576               19.465       
       216.64046             28.5278               19.305       
       217.72366             28.6828               19.152       
       218.81228             28.8248               19.006       
       219.90634             28.9556               18.866       
       221.00588             29.0766               18.732       
        222.1109             29.1891               18.604       
       223.22146             29.2938               18.481       
       224.33757             29.3916               18.362       
       225.45925             29.4829               18.249       
       226.58655             29.5683               18.14        
       227.71948             29.6486               18.037       
       228.85808             29.7249               17.939       
       230.00237             29.7976               17.845       
       231.15238             29.8674               17.756       
       232.30814             29.9346               17.671       
       233.46969             29.9996               17.59        
       234.63703             30.0627               17.512       
       235.81022             30.1241               17.437       
       236.98927             30.1841               17.365       
       238.17422             30.2427               17.296       
       239.36509             30.3002               17.23        
       240.56191             30.3566               17.166       
       241.76472             30.4122               17.104       
       242.97355             30.4668               17.044       
       244.18841             30.5207               16.986       
       245.40936             30.5739               16.93        
        246.6364             30.6265               16.875       
       247.86959             30.6784               16.822       
       249.10893             30.7298               16.771       
       250.35448             30.7807               16.72        
       251.60625             30.8312               16.672       
       252.86428             30.8811               16.624       
        254.1286             30.9306               16.577       
       255.39925             30.9797               16.532       
       256.67624             31.0284               16.487       
       257.95962             31.0766               16.443       
       259.24942             31.1245               16.401       
       260.54567              31.172               16.359       
        261.8484             31.2192               16.317       
       263.15764             31.2659               16.277       
       264.47343             31.3123               16.237       
       265.79579             31.3583               16.198       
       267.12477              31.404               16.16        
        268.4604             31.4493               16.122       
        269.8027             31.4942               16.084       
       271.15171             31.5387               16.048       
       272.50747             31.5829               16.011       
       273.87001             31.6266               15.975       
       275.23936              31.67                15.94        
       276.61556              31.713               15.905       
       277.99863             31.7555               15.871       
       279.38863             31.7977               15.836       
       280.78557             31.8394               15.803       
        282.1895             31.8807               15.769       
       283.60044             31.9216               15.736       
       285.01845              31.962               15.704       
       286.44354              32.002               15.672       
       287.87576             32.0415               15.64        
       289.31514             32.0805               15.608       
       290.76171             32.1191               15.577       
       292.21552             32.1571               15.546       
        293.6766             32.1947               15.515       
       295.14498             32.2317               15.484       
       296.62071             32.2681               15.454       
       298.10381              32.304               15.424       
       299.59433             32.3394               15.395       
        301.0923             32.3741               15.365       
       302.59776             32.4082               15.336       
       304.11075             32.4417               15.307       
        305.6313             32.4746               15.279       
       307.15946             32.5067               15.251       
       308.69526             32.5382               15.222       
       310.23873             32.5689               15.195       
       311.78993             32.5988               15.167       
       313.34888              32.628               15.14        
       314.91562             32.6563               15.113       
        316.4902             32.6837               15.086       
       318.07265             32.7102               15.059       
       319.66301             32.7357               15.033       
       321.26133             32.7601               15.007       
       322.86764             32.7835               14.981       
       324.48197             32.8056               14.955       
       326.10438             32.8264               14.93        
       327.73491             32.8459               14.905       
       329.37358             32.8638               14.88        
       331.02045              32.88                14.855       
       332.67555             32.8944               14.831       
       334.33893             32.9068               14.806       
       336.01062             32.9169               14.783       
       337.69068             32.9243               14.759       
       339.37913             32.9288               14.735       
       341.07602             32.9298               14.712       
        342.7814             32.9266               14.689       
       344.49531             32.9185               14.666       
       346.21779             32.9042               14.644       
       347.94888             32.8821               14.622       
       349.68862             32.8496                14.6        
       351.43706             32.8026               14.578       
       353.19425             32.7339               14.556       
       354.96022             32.6287               14.535       
       356.73502             32.4476               14.514       
        358.5187             31.9961               14.493       
       358.85446             31.7736               14.489       
       359.74552              31.788               15.756       
       360.31129             32.1302               15.75        
       362.11285             32.5763               15.734       
       363.92341             32.8094               15.718       
       365.74303             32.9756               15.702       
       367.57174             33.1086               15.686       
        369.4096             33.2215               15.671       
       371.25665              33.321               15.656       
       373.11293             33.4107               15.641       
        374.9785              33.493               15.627       
       376.85339             33.5695               15.612       
       378.73766             33.6411               15.598       
       380.63135             33.7086               15.584       
        382.5345             33.7727               15.571       
       384.44718             33.8336               15.557       
       386.36941             33.8917               15.544       
       388.30126              33.947               15.531       
       390.24276             33.9998               15.519       
       392.19398             34.0501               15.506       
       394.15495             34.0976               15.494       
       396.12572             34.1422               15.482       
       398.10635             34.1836               15.47        
       400.09688             34.2208               15.459       
       402.09737             34.2527               15.447       
       404.10785             34.2766               15.436       
       406.12839             34.2867               15.425       
       408.15904             34.2633               15.415       
       409.52587             34.1682               15.407       
       410.19983             33.9986               15.739       
       410.67415             34.1968               15.737       
       412.25083              34.377               15.73        
       414.31208             34.4999               15.722       
       416.38364             34.5937               15.713       
       418.46556              34.675               15.705       
       420.55789             34.7494               15.697       
       422.66068             34.8192               15.689       
       424.77398             34.8858               15.681       
       426.89785             34.9499               15.674       
       429.03234             35.0121               15.666       
        431.1775             35.0728               15.659       
       433.33339             35.1321               15.652       
       435.50006             35.1903               15.645       
       437.67756             35.2475               15.638       
       439.86595             35.3038               15.631       
       442.06528             35.3593               15.624       
        444.2756             35.4141               15.617       
       446.49698             35.4683               15.611       
       448.72947             35.5218               15.604       
       450.97311             35.5746               15.598       
       453.22798             35.6269               15.592       
       455.49412             35.6786               15.586       
       457.77159             35.7298               15.579       
       460.06045             35.7803               15.573       
       462.36075             35.8302               15.567       
       464.67255             35.8795               15.561       
       466.99592             35.9281               15.555       
        469.3309              35.976               15.549       
       471.67755              36.023               15.543       
       474.03594             36.0692               15.537       
       476.40612             36.1143               15.531       
       478.78815             36.1583               15.525       
       481.18209             36.2009               15.519       
        483.588              36.2418               15.513       
       486.00594             36.2807               15.507       
       488.43597             36.3171               15.501       
       490.87815             36.3502               15.495       
       493.33254             36.3789               15.488       
        495.7992             36.4012               15.482       
        498.2782             36.4136               15.476       
       500.76959             36.4085               15.469       
       503.27344             36.3633               15.463       
       505.41541             36.1934               15.457       
        505.7898             36.0943               15.456       
       506.98463             36.2288               15.974       
       508.31875             36.4238               15.971       
       510.86035             36.6121               15.966       
       513.41465             36.7424               15.96        
       515.98172             36.8509               15.953       
       518.56163             36.9478               15.947       
       521.15444             37.0377               15.941       
       523.76021             37.1227               15.934       
       526.37901             37.2042               15.927       
       529.01091             37.2831               15.921       
       531.65596              37.36                15.913       
       534.31424             37.4353               15.906       
       536.98581             37.5093               15.899       
       539.67074             37.5821               15.891       
        542.3691             37.6541               15.883       
       545.08094             37.7252               15.875       
       547.80635             37.7957               15.867       
       550.54538             37.8656               15.858       
        553.2981              37.935               15.85        
        556.0646              38.004               15.841       
       558.84492             38.0725               15.831       
       561.63914             38.1407               15.822       
       564.44734             38.2086               15.812       
       567.26958             38.2763               15.802       
       570.10592             38.3436               15.792       
       572.95645             38.4107               15.782       
       575.82123             38.4775               15.771       
       578.70034             38.5442               15.76        
       581.59384             38.6106               15.748       
       584.50181             38.6768               15.736       
       587.42432             38.7608               15.724       
       590.36144             38.8266               15.712       
       593.31325             38.8922               15.699       
       596.27982             38.9577               15.686       
       599.26122              39.023               15.673       
       602.25752             39.0881               15.659       
       605.26881             39.1531               15.645       
       608.29515             39.2178               15.631       
       611.33663             39.2824               15.616       
       614.39331             39.3469               15.601       
       617.46528              39.401               15.586       
        620.5526              39.465               15.571       
       623.65537             39.5288               15.555       
       626.77364             39.5924               15.538       
       629.90751             39.6558               15.521       
       633.05705              39.719               15.504       
       636.22234             39.7821               15.487       
       639.40345             39.8449               15.469       
       642.60046             39.9075               15.451       
       645.81347              39.97                15.433       
       649.04253             40.0322               15.414       
       652.28775             40.0942               15.395       
       655.54919              40.156               15.375       
       658.82693             40.2176               15.355       
       662.12107             40.2789               15.335       
       665.43167             40.3401               15.315       
       668.75883             40.4009               15.294       
       672.10262             40.4616               15.272       
       675.46314              40.522               15.251       
       678.84045             40.5822               15.229       
       682.23466             40.6421               15.206       
       685.64583             40.7018               15.184       
       689.07406             40.7612               15.16        
       692.51943             40.8204               15.137       
       695.98202             40.8793               15.113       
       699.46194             40.9378               15.088       
       702.95924              40.996               15.063       
       706.47404             41.0538               15.038       
       710.00641             41.1113               15.012       
       713.55644             41.1684               14.986       
       717.12423             41.2252               14.96        
       720.70985             41.2815               14.933       
        724.3134             41.3375               14.906       
       727.93496             41.3932               14.878       
       731.57464             41.4484               14.851       
       735.23251             41.5033               14.822       
       738.90867             41.5577               14.794       
       742.60322             41.6118               14.765       
       746.31623             41.6654               14.736       
       750.04781             41.7186               14.707       
       753.79805             41.7714               14.677       
       757.56704             41.8238               14.647       
       761.35488             41.8757               14.616       
       765.16165             41.9272               14.586       
       768.98746             41.9783               14.555       
        772.8324             42.0289               14.523       
       776.69656              42.079               14.492       
       780.58004             42.1287               14.46        
       784.48294             42.1779               14.428       
       788.40536             42.2267               14.395       
       792.34738             42.2749               14.362       
       796.30912             42.3226               14.329       
       800.29067             42.3699               14.295       
       804.29212             42.4166               14.261       
       808.31358             42.4627               14.227       
       812.35515             42.5084               14.193       
       816.41693             42.5534               14.158       
       820.49901             42.5979               14.123       
        824.6015             42.6419               14.088       
       828.72451             42.6853               14.052       
       832.86813             42.7281               14.016       
       837.03248             42.7703               13.98        
       841.21764             42.8119               13.943       
       845.42373             42.8529               13.907       
       849.65084             42.8933               13.87        
        853.8991              42.933               13.832       
       858.16859             42.9721               13.795       
       862.45944             43.0106               13.757       
       866.77173             43.0483               13.719       
       871.10559             43.0854               13.681       
       875.46112             43.1217               13.642       
       879.83843             43.1574               13.603       
       884.23762             43.1923               13.565       
       888.65881             43.2266               13.526       
        893.1021             43.2601               13.487       
       897.56761             43.2929               13.447       
       902.05545              43.325               13.408       
       906.56573             43.3564               13.368       
       911.09856              43.387               13.329       
       915.65405              43.417               13.289       
       920.23232             43.4462               13.249       
       924.83348             43.4747               13.21        
       929.45765             43.5024               13.17        
       934.10494             43.5294               13.13        
       938.77546             43.5557               13.09        
       943.46934             43.5813               13.05        
       948.18668             43.6062               13.01        
       952.92762             43.6303               12.97        
       957.69226             43.6537               12.93        
       962.48072             43.6764               12.89        
       967.29312             43.6984               12.85        
       972.12959             43.7197               12.81        
       976.99023             43.7404               12.77        
       981.87519             43.7606               12.73        
       986.78456             43.7804               12.69        
       991.71848             43.8005               12.65        
       996.67708             43.8254               12.61        
       1001.6605             44.0197               12.556       
       1006.6688             44.0422               12.475       
       1011.7021             44.0588               12.394       
       1016.7606             44.0703               12.314       
       1021.8444             44.0775               12.235       
       1026.9536              44.081               12.156       
       1032.0884             44.0811               12.078       
       1037.2489             44.0781               12.001       
       1042.4351             44.0722               11.924       
       1047.6473             44.0636               11.848       
       1052.8855             44.0524               11.773       
       1058.1499             44.0388               11.698       
       1063.4407             44.0228               11.624       
       1068.7579             44.0046               11.551       
       1074.1017             43.9841               11.478       
       1079.4722             43.9634               11.405       
       1084.8695             43.9386               11.334       
       1090.2939             43.9117               11.263       
       1095.7454             43.8826               11.192       
       1101.2241             43.8515               11.122       
       1106.7302             43.8182               11.053       
       1112.2639             43.7828               10.984       
       1117.8252             43.7453               10.916       
       1123.4143             43.7057               10.848       
       1129.0314             43.6639               10.781       
       1134.6765              43.62                10.714       
       1140.3499             43.5739               10.648       
       1146.0517             43.5255               10.583       
       1151.7819             43.4749               10.518       
       1157.5408             43.4221               10.454       
       1163.3285             43.3669               10.39        
       1169.1452             43.3094               10.326       
       1174.9909             43.2494               10.263       
       1180.8659              43.187               10.201       
       1186.7702              43.122               10.139       
        1192.704             43.0545               10.078       
       1198.6676             42.9844               10.017       
       1204.6609             42.9115               9.9568       
       1210.6842             42.8359               9.8969       
       1216.7376             42.7573               9.8375       
       1222.8213             42.6759               9.7786       
       1228.9354             42.5914               9.7202       
       1235.0801             42.5047               9.6622       
       1241.2555             42.4138               9.6047       
       1247.4618             42.3196               9.5477       
       1253.6991             42.2218               9.4911       
       1259.9676             42.1205               9.4349       
       1266.2674             42.0154               9.3792       
       1272.5988             41.9064               9.324        
       1278.9618             41.7933               9.2692       
       1285.3566             41.6761               9.2148       
       1291.7833             41.5544               9.1609       
       1298.2423             41.4281               9.1073       
       1304.7335              41.297               9.0542       
       1311.2571             41.1609               9.0015       
       1317.8134             41.0194               8.9493       
       1324.4025             40.8724               8.8974       
       1331.0245             40.7195               8.846        
       1337.6796             40.5604               8.7949       
        1344.368             40.3948               8.7443       
       1351.0899             40.2223               8.694        
       1357.8453             40.0424               8.6442       
       1364.6345             39.8548               8.5947       
       1371.4577             39.6588               8.5456       
        1378.315             39.4541               8.4969       
       1385.2066             39.2398               8.4486       
       1392.1326             39.0155               8.4006       
       1399.0933             38.7802               8.353        
       1406.0887             38.5332               8.3058       
       1413.1192             38.2736               8.259        
       1420.1848             38.0001               8.2125       
       1427.2857             37.7117               8.1664       
       1434.4221              37.407               8.1206       
       1441.5942             37.0843               8.0741       
       1448.8022             36.7416               8.0274       
       1456.0462              36.377               7.981        
       1463.3265             35.9879               7.935        
       1470.6431             35.5713               7.8893       
       1477.9963             35.1237               7.844        
       1485.3863              34.641               7.7991       
       1492.8132              34.118               7.7545       
       1500.2773             33.5481               7.7102       
       1507.7787             32.9234               7.6663       
       1515.3176             32.2334               7.6227       
       1522.8942             31.4659               7.5794       
       1530.5086             30.5989               7.5365       
       1538.1612             29.6074               7.4939       
        1545.852             28.4518               7.4516       
       1553.5812             27.0693               7.4096       
       1561.3491             25.3499               7.368        
       1569.1559             23.0725               7.3267       
       1577.0017             19.6632               7.2857       
       1584.8867             12.3501               7.245        
       1588.2395             -3.75676              7.2278       
       1588.7605             -4.09227              26.332       
       1592.8111             12.8184               26.231       
       1600.7752             18.7021               26.034       
        1608.779             21.0642               25.84        
       1616.8229             22.1012               25.646       
        1624.907             22.0761               25.455       
       1633.0316             20.2447               25.265       
       1638.8836             11.1683               25.129       
       1639.9164              11.121               37.61        
       1641.1967             16.2781               37.565       
       1649.4027             24.2105               37.278       
       1657.6497              27.553               36.994       
        1665.938             29.8847               36.712       
       1674.2677             31.7276               36.433       
        1682.639             33.2704               36.155       
       1691.0522             34.6057               35.88        
       1699.5075             35.7863               35.607       
        1708.005             36.8459               35.337       
        1716.545             37.8077               35.068       
       1725.1278              38.688               34.801       
       1733.7534             39.4991               34.537       
       1742.4222             40.2505               34.275       
       1751.1343             40.9496               34.015       
       1759.8899             41.6024               33.757       
       1768.6894             42.2135                33.5        
       1777.5328             42.7872               33.246       
       1786.4205             43.3266               32.994       
       1795.3526             43.8346               32.744       
       1804.3294             44.3134               32.496       
        1813.351             44.7651               32.25        
       1822.4178             45.1914               32.006       
       1831.5299             45.5935               31.764       
       1840.6875             45.9728               31.524       
       1849.8909              46.33                31.286       
       1859.1404              46.666               31.049       
       1868.4361             46.9813               30.815       
       1877.7783              47.276               30.582       
       1887.1672             47.5504               30.351       
        1896.603             47.8043               30.122       
        1906.086             48.0371               29.895       
       1915.6165             48.2481               29.67        
       1925.1945             48.4357               29.446       
       1934.8205             48.5981               29.224       
       1944.4946             48.7323               29.004       
       1954.2171             48.8337               28.786       
       1963.9882             48.8955               28.569       
       1973.8081              48.907               28.354       
       1983.6772             48.8495               28.141       
       1993.5955             48.6876               27.929       
       2003.5635              48.341               27.72        
       2013.5813             47.5503               27.511       
       2021.3134             45.4969               27.352       
       2023.6492             39.5706               32.141       
       2025.8868             45.5521               32.081       
       2033.7675             48.0629               31.873       
       2043.9363             49.3775               31.608       
        2054.156             50.2322               31.345       
       2064.4268             50.8904               31.084       
       2074.7489             51.4348               30.823       
       2085.1227             51.9021               30.564       
       2095.5483              52.312               30.308       
        2106.026             52.6757               30.054       
       2116.5562             52.9993               29.801       
       2127.1389             53.2853               29.561       
       2137.7746             53.5488               29.338       
       2148.4635             53.7932               29.118       
       2159.2058             54.0184               28.901       
       2170.0018             54.2241               28.687       
       2180.8519             54.4098               28.475       
       2191.7561             54.5741               28.267       
       2202.7149             54.7142               28.062       
       2213.7285             54.8252               27.859       
       2224.7971             54.8972               27.659       
       2235.9211             54.9095               27.461       
       2247.1007             54.8064               27.265       
       2258.3362              54.313               27.072       
       2260.8064             53.9624               27.03        
       2266.1935             54.0354               28.855       
       2269.6279             54.6022               28.789       
        2280.976             55.4404               28.574       
       2292.3809             55.9313               28.361       
       2303.8428             56.3087               28.151       
        2315.362             56.6256               27.943       
       2326.9388             56.9029               27.737       
       2338.5735             57.1509               27.533       
       2350.2664             57.3751               27.332       
       2362.0177             57.5785               27.133       
       2373.8278             57.7621               26.935       
        2385.697             57.9287               26.752       
       2397.6254             58.0841               26.572       
       2409.6136             58.2269               26.395       
       2421.6616             58.3553               26.22        
       2433.7699             58.4665               26.047       
       2445.9388             58.5554               25.876       
       2458.1685             58.6112               25.707       
       2470.4593             58.6071               25.541       
       2482.8116             58.4361               25.376       
       2486.1428              58.292               25.332       
       2495.2257             58.3177               26.38        
       2496.2571              58.416               26.366       
       2507.7018             59.0018               26.214       
       2520.2403             59.3665               26.049       
       2532.8415              59.651               25.885       
       2545.5057             59.8968               25.724       
       2558.2333             60.1188               25.563       
       2571.0244             60.3246               25.404       
       2583.8796              60.518               25.246       
        2596.799             60.7018               25.089       
       2609.7829             60.8776               24.934       
       2622.8319             61.0466               24.781       
        2635.946             61.2107               24.627       
       2649.1257             61.3691               24.472       
       2662.3714             61.5223               24.318       
       2675.6832              61.671               24.166       
       2689.0617             61.8155               24.014       
        2702.507             61.9562               23.863       
       2716.0195             62.0933               23.714       
       2729.5996             62.2273               23.565       
       2743.2476             62.3581               23.418       
       2756.9638             62.4862               23.271       
       2770.7486             62.6115               23.125       
       2784.6024             62.7344               22.981       
       2798.5254             62.8549               22.837       
        2812.518             62.9732               22.694       
       2826.5806             63.0894               22.552       
       2840.7135             63.2036               22.41        
       2854.9171              63.316               22.27        
       2869.1917             63.4266               22.13        
       2883.5376             63.5356               21.991       
       2897.9553             63.6432               21.853       
       2912.4451             63.7495               21.716       
       2927.0073             63.8548               21.579       
       2941.6424             63.9593               21.443       
       2956.3506             64.0632               21.307       
       2971.1323             64.1671               21.171       
        2985.988             64.2727               21.037       
       3000.9179             64.3872               20.902       
       3015.9225             64.4921               20.751       
       3031.0021             64.5929               20.602       
       3046.1571             64.6902               20.453       
       3061.3879             64.7842               20.306       
       3076.6949             64.8752               20.159       
       3092.0783             64.9635               20.014       
       3107.5387             65.0491               19.87        
       3123.0764             65.1324               19.727       
       3138.6918             65.2134               19.585       
       3154.3853             65.2924               19.444       
       3170.1572             65.3695               19.304       
        3186.008             65.6549               19.161       
        3201.938             65.7286               19.016       
       3217.9477             65.7998               18.873       
       3234.0374             65.8688               18.73        
       3250.2076             65.9355               18.589       
       3266.4587             66.0001               18.448       
        3282.791             66.2105               18.308       
       3299.2049              66.271               18.165       
       3315.7009             66.3292               18.023       
       3332.2794             66.3852               17.883       
       3348.9408             66.4391               17.744       
       3365.6856              66.491               17.606       
        3382.514              66.541               17.47        
       3399.4265             66.5892               17.335       
       3416.4237             66.6357               17.201       
       3433.5058             66.6806               17.068       
       3450.6733             66.7239               16.936       
       3467.9267             66.7658               16.806       
       3485.2663             66.8062               16.677       
       3502.6927             66.8452               16.549       
       3520.2061             66.8829               16.422       
       3537.8072             66.9193               16.296       
       3555.4962             66.9545               16.172       
       3573.2737             66.9885               16.049       
        3591.14              67.0214               15.926       
       3609.0957             67.0532               15.805       
       3627.1412             67.0839               15.685       
       3645.2769             67.1136               15.566       
       3663.5033             67.1423               15.448       
       3681.8208              67.17                15.33        
       3700.2299             67.1968               15.213       
       3718.7311             67.2226               15.097       
       3737.3247             67.2475               14.982       
       3756.0114             67.2716               14.868       
       3774.7914             67.2948               14.755       
       3793.6654             67.3171               14.644       
       3812.6337             67.3387               14.533       
       3831.6969             67.3595               14.423       
       3850.8554             67.3796               14.314       
       3870.1096             67.3989               14.206       
       3889.4602             67.4176               14.098       
       3908.9075             67.4355               13.991       
        3928.452             67.4528               13.886       
       3948.0943             67.4695               13.781       
       3967.8347             67.4855               13.677       
       3987.6739              67.501               13.574       
        4055.024             68.0705               13.234       
        4334.821             68.1253               11.926       
        4633.924             68.1421               10.755       
        4953.664             68.0331               9.6944       
        5295.467             67.8818               8.7414       
        5660.855             67.6534               7.892        
        6051.453             67.3736               7.1349       
        6469.004             67.0389               6.4591       
        6915.365             66.6357               5.8517       
        7392.525             66.1193               5.2816       
        7902.609             65.4029               4.7703       
        8447.89              64.2755               4.3147       
        9030.794              61.522               3.8874       
        9059.218             61.2237               3.8656       
        9197.879             58.3103               3.762        
        9234.856             54.8774               3.7351       
        9290.32              58.3353               10.408       
        9428.982             61.3582               10.061       
        9653.919             62.8874               9.5328       
        10141.63             63.2255               8.651        
        10296.86             62.0344               8.4114       
        10320.04             61.4352               8.3769       
        10338.25             60.3722                8.35        
        10400.34             62.1758               11.623       
        10555.57             63.8087               11.291       
        10652.99             64.2064               11.091       
        10816.05             64.1778               10.771       
        10859.53             63.4651               10.689       
        10924.75              64.525               12.266       
        11032.12             65.4276               12.075       
        11087.81             65.7342               11.979       
        11793.34             67.8323               10.89        
        12607.08             69.0599               9.8194       
        13476.97             69.8582               8.8462       
        14406.88             70.4053               7.9399       
        15400.95             70.7705               7.1159       
        16463.62             71.0101               6.3749       
        17599.61             71.1611               5.7119       
        18813.98             71.3132               5.1183       
        20112.15             71.3517               4.5831       
        21499.88             71.3908               4.1049       
        22983.38              71.399               3.6721       
        24569.23             71.3572               3.2866       
        26264.5              71.3068               2.9442       
        28076.76             71.2484               2.6182       
        30014.05              71.165               2.324        
        32085.02             71.0701               2.0646       
        34298.89             70.9678               1.8357       
        36665.51             70.8598               1.6333       
        39195.43             70.7462               1.4545       
        41899.92             70.6252               1.2942       
        44791.01             70.4918               1.1513       
        47881.59             70.3391               1.0224       
        51185.42             70.1506              0.90531       
        54717.21             69.8941              0.80196       
        58492.7              69.4707              0.71065       
        62047.52             68.4517              0.63901       
        62528.7              68.0708              0.63021       
        62997.23             67.3303              0.62183       
        63250.49             65.9876              0.61737       
        63630.37             67.3441               3.2538       
        64580.08             68.5694               3.1814       
        66843.18              69.508               3.0182       
        71455.36             70.2671               2.7105       
        76385.78              70.658               2.4307       
        81656.4              70.9032               2.1793       
        87290.69             71.0647               1.9462       
        93313.74             71.1701               1.7376       
        99752.39             71.2395               1.5515       
        106635.3             71.2841               1.3855       
        113993.1             71.3112               1.2375       
        121858.7             71.3261               1.1054       
        130266.9             71.3602              0.98577       
        139255.3              71.357               0.8771       
        148864.0             71.3479              0.78049       
        159135.6             71.3349              0.69458       
        170115.9             71.3193              0.61819       
        181853.9             71.3022              0.55025       
        194401.8             71.2843              0.48983       
        207815.6              71.266              0.43607       
        222154.8             71.2477              0.38825       
        237483.5             71.2297               0.3457       
        253869.9             71.2122              0.30783       
        271386.9              71.195              0.27414       
        290112.6             71.1787              0.24552       
        310130.4             71.1639              0.22016       
        331529.4             71.1504              0.19742       
        354404.9             71.1379              0.17705       
        378858.8             71.1263              0.15879       
        405000.1             71.1157              0.14242       
        432945.1             71.1058              0.12775       
