# Mo
# Form Factors from Chantler Tables
# DOI: https://dx.doi.org/10.18434/T4HS32
# automatically retrived 2019-02-27 using URL https://physics.nist.gov/cgi-bin/ffast/ffast.pl
#
# Z = 42
# f_rel = -0.34394 e/atom  (Relativistic correction estimate)
# f_NT = -0.010086 e/atom (Nuclear Thomson correction)


#        E (eV)            f1 (e/atom)          f2 (e/atom)     
         10.69               5.43077               4.2268       
        11.42761              5.6574               4.3599       
        12.21612             5.89493               4.4827       
        13.05903              6.1416               4.5937       
        13.9601              6.39538               4.6917       
        14.92335             6.65388               4.7757       
        15.95306             6.91442               4.845        
        17.05382             7.17398               4.899        
        18.23053             7.42913               4.9378       
        19.48844              7.6759               4.9614       
        20.83314             7.90949               4.9703       
        22.27063             8.12377               4.9652       
        23.8073              8.31018               4.947        
        25.45001             8.45545               4.9167       
        27.20606             8.53633               4.8757       
        29.08327             8.50468               4.8251       
        31.09002             8.23348               4.7664       
        33.23523             7.17095               4.701        
         34.104              5.77629               4.6591       
         34.626              2.90324               4.6174       
        34.7652             -0.778485              4.6063       
         34.974              3.36242               11.959       
        35.52846             7.19047               11.443       
        37.97993             11.2789               9.5682       
        40.60054             12.6164               8.1374       
        43.40198             13.2362               7.0647       
        46.39671             13.5538               6.2404       
        49.59809              13.721               5.5908       
        53.02035             13.8042               5.0665       
        56.67876             13.8311               4.6336       
        60.58959              13.787               4.269        
         61.491              13.7286               4.1958       
        61.7382              13.6601               4.1764       
         62.109              13.7257               4.2808       
         63.036               13.781               4.2156       
        64.77028             13.8132               4.1021       
        69.23942             13.8363               3.8525       
        74.01695             13.8351               3.6366       
        79.12411             13.8196               3.4473       
        84.58368             13.7912               3.2799       
        90.41995             13.7496               3.1308       
        96.65893             13.6931               2.9973       
        103.3284             13.6193               2.877        
        110.4581             13.5141               2.7682       
        118.0797             13.3944               2.6694       
        126.2272             13.2439               2.5793       
        134.9368             13.0549               2.4969       
        144.2475             12.8173               2.4212       
        154.2005             12.5165               2.351        
        164.8404             12.1311               2.2854       
        176.2144             11.6281               2.2236       
        188.3732             10.9533               2.1649       
        201.3709             9.99069               2.1085       
        215.2655             8.43463               2.0539       
         222.46              7.04766               2.0275       
        225.694               5.8333               2.016        
        225.865               5.7249               2.0154       
        226.773              4.69403               2.0122       
        228.135              5.09083               3.6403       
        229.1485             5.02968               3.6929       
        230.1188             4.41639               3.7449       
        231.4515             5.00987               4.9447       
         231.54              5.03178               4.953        
        234.906              5.28899               5.2834       
        245.997              4.84517               6.6278       
        262.9708             4.24159               9.4064       
        281.1158             4.54616               12.567       
        300.5128             5.81417               15.621       
        321.2482             7.86636               18.172       
        343.4143             10.3493               19.977       
        367.1099             12.7662               20.964       
        384.454              13.7735               21.198       
        390.3385             13.2606               21.204       
        391.9077             12.1417                21.2        
        392.4405              11.384               23.659       
        394.2615              13.606               23.656       
        400.146              15.1521               23.628       
        401.506              15.3665               23.618       
        407.6515             15.9187               23.555       
        409.2903             15.6122               23.534       
        411.7485             16.5015               24.569       
        417.894              17.7696               24.476       
        419.5189             18.0296               24.448       
        448.4657             21.4691               23.758       
        479.4098             23.9738               22.755       
        494.508               24.794               22.216       
        502.077              24.8741               21.94        
        504.0954             24.5128               21.866       
        507.123              25.1922               22.711       
        512.4891             25.8644               22.514       
        514.692               26.069               22.433       
        547.8508             28.2255               21.221       
        585.6525             29.9319               19.898       
        626.0625             31.2977               18.585       
        669.2609             32.4106               17.309       
        715.4399             33.3261               16.076       
        764.8052             34.0693               14.895       
        817.5768             34.6737               13.782       
        873.9896             35.1699               12.732       
        934.2948             35.5813               11.746       
        998.7612             35.9549               10.827       
        1067.676             36.1742               9.8128       
        1141.345             36.2585                8.9         
        1220.098             36.2574               8.0802       
        1304.285             36.1943               7.344        
        1394.281             36.0724               6.6828       
        1490.486             35.9002               6.0889       
        1593.329             35.6798               5.5491       
        1703.269             35.3859               5.0351       
        1820.795             34.9914               4.5682       
        1946.43               34.465               4.1501       
        2080.733              33.734               3.7728       
        2224.304             32.6163               3.4311       
        2377.781             30.5017               3.124        
        2469.796             27.5231               2.9632       
        2507.599              23.709               2.9015       
        2517.68               19.403               2.8855       
        2532.801             23.5006               11.137       
        2541.848              24.869               11.065       
        2572.598             26.7832               10.825       
        2611.974             26.6161               10.53        
        2622.475             24.8332               10.453       
        2638.225              27.332               14.436       
        2677.602             29.9784               14.071       
        2717.235             31.2991               13.727       
        2808.19               32.83                13.02        
        2851.172              32.718               12.718       
        2862.634             31.9251               12.64        
        2879.827             33.1218               14.41        
        2904.724             34.0687               14.233       
        2922.81              34.5276               14.106       
        3105.15              37.1639               12.897       
        3319.406             38.8104               11.637       
        3548.445             39.9027               10.453       
        3793.288              40.642               9.3804       
        4055.024             41.1562               8.4242       
        4334.821             41.5188               7.5706       
        4633.924             41.7742               6.8064       
        4953.664             41.9551               6.1245       
        5295.467             42.2145               5.4907       
        5660.855              42.276               4.908        
        6051.453             42.3318               4.3807       
        6469.004             42.3136               3.9113       
        6915.365             42.2721               3.4954       
        7392.525             42.2157               3.1265       
        7902.609             42.1495               2.7961       
        8447.89              42.0778               2.5023       
        9030.794             42.0075               2.2363       
        9653.919             41.9204               1.9837       
        10320.04             41.8235               1.7606       
        11032.12             41.7208               1.5633       
        11793.34              41.611               1.384        
        12607.08             41.4919               1.2244       
        13476.97             41.3594               1.0802       
        14406.88             41.2086              0.95392       
        15400.95             41.0305              0.84315       
        16463.62             40.8051              0.74588       
        17599.61             40.4829              0.66041       
        18813.98             39.8893              0.58527       
        19599.51             38.9193              0.54374       
        19899.5              37.6005              0.52913       
        19979.5              36.0126              0.52534       
        20112.15             37.7527               3.6454       
        20399.49             39.0911               3.5517       
        21499.88             40.5117               3.2372       
        22983.38             41.2203               2.904        
        24569.23             41.6227               2.6105       
        26264.5              41.8901               2.3438       
        28076.76             42.0745               2.0896       
        30014.05             42.1944               1.8604       
        32085.02             42.2738               1.6566       
        34298.89             42.3257               1.4753       
        36665.51             42.3582               1.314        
        39195.43             42.3775               1.1704       
        41899.92              42.421               1.037        
        44791.01             42.4178              0.91661       
        47881.59             42.4073               0.8103       
        51185.42             42.3921              0.71637       
        54717.21             42.3741              0.63337       
        58492.7              42.3543              0.55996       
        62528.7              42.3337              0.49496       
        66843.18             42.3128              0.43732       
        71455.36              42.292              0.38642       
        76385.78             42.2718              0.34147       
        81656.4              42.2527              0.30134       
        87290.69             42.2342              0.26504       
        93313.74              42.216              0.23277       
        99752.39             42.1984              0.20445       
        106635.3             42.1817              0.17958       
        113993.1              42.166              0.15774       
        121858.7             42.1514              0.13856       
        130266.9             42.1378              0.12172       
        139255.3             42.1253              0.10694       
        148864.0             42.1137              0.09395       
        159135.6              42.103              0.082544      
        170115.9             42.0933              0.072525      
        181853.9             42.0843              0.063725      
        194401.8             42.0762              0.055995      
        207815.6             42.0688              0.049205      
        222154.8              42.062              0.043239      
        237483.5             42.0559              0.037999      
        253869.9             42.0503              0.033394      
        271386.9             42.0453              0.029348      
        290112.6             42.0407              0.025794      
        310130.4             42.0366              0.022671      
        331529.4             42.0328              0.019926      
        354404.9             42.0295              0.017514      
        378858.8             42.0264              0.015395      
        405000.1             42.0237              0.013533      
        432945.1             42.0212              0.011896      
