# Nb
# Form Factors from Chantler Tables
# DOI: https://dx.doi.org/10.18434/T4HS32
# automatically retrived 2019-02-27 using URL https://physics.nist.gov/cgi-bin/ffast/ffast.pl
#
# Z = 41
# f_rel = -0.32408 e/atom  (Relativistic correction estimate)
# f_NT = -0.0099257 e/atom (Nuclear Thomson correction)


#        E (eV)            f1 (e/atom)          f2 (e/atom)     
         10.69               10.0659               4.4264       
        11.42761             10.5322               4.2928       
        12.21612             10.9518               4.0896       
        13.05903              11.312               3.8319       
        13.9601              11.6045               3.5347       
        14.92335             11.8247               3.2159       
        15.95306             11.9742               2.892        
        17.05382             12.0579               2.5762       
        18.23053              12.082               2.2779       
        19.48844             12.0526               2.003        
        20.83314             11.9742               1.7549       
        22.27063             11.8479               1.5345       
        23.8073              11.6699               1.3411       
        25.45001             11.4272               1.1731       
        27.20606             11.0887               1.0283       
        29.08327             10.5769               0.9041       
        31.09002              9.6496              0.79807       
        33.23523              6.6165              0.70772       
        33.7305              3.18596              0.68959       
        33.8661              -1.19368             0.68479       
        34.0695              3.70199               9.404        
         34.578              8.02069               8.8157       
        35.52846             10.7915               7.8365       
        37.97993             13.2373               5.8871       
        40.60054             13.9977               4.5061       
        43.40198             14.2144               3.5327       
        46.39671             14.2065               2.8358       
        49.59809             14.0978               2.3295       
        53.02035             13.9394               1.9564       
        56.67876             13.7336               1.678        
         56.938              13.7147               1.6617       
        57.8095              13.6248               1.6096       
        58.0419              13.5549               1.5964       
        58.3905              13.5974               1.6935       
         59.262              13.6097               1.6519       
        60.58959             13.5818               1.5957       
        64.77028             13.4584               1.4641       
        69.23942             13.3287               1.3708       
        74.01695             13.2008               1.3053       
        79.12411             13.0742               1.2606       
        84.58368             12.9466               1.2317       
        90.41995             12.8148               1.2146       
        96.65893             12.6746               1.2064       
        103.3284             12.5133               1.2049       
        110.4581             12.3409               1.2085       
        118.0797             12.1424               1.2156       
        126.2272             11.9086               1.2254       
        134.9368             11.6273               1.2367       
        144.2475             11.2817               1.2489       
        154.2005             10.8466               1.2611       
        164.8404             10.2823               1.2727       
        176.2144             9.51839               1.283        
        188.3732             8.38955               1.2916       
        200.508              6.42876               1.2978       
        201.3709             6.18902               1.2981       
        203.252              5.47097               1.2988       
        203.577              5.28557               1.299        
        204.3954              4.4195               1.2992       
        205.623              4.71064               2.6448       
        206.363              4.65902               2.6845       
        207.1926             4.22092               2.7303       
        208.437              4.61993               3.7235       
        208.692              4.66799               3.7474       
        211.548              4.79309                4.03        
        215.2655             4.64634               4.4399       
        230.1188             3.68255               6.6351       
        245.997               3.3117               9.5437       
        262.9708              3.8466               12.665       
        281.1158             5.28323               15.581       
        300.5128             7.40735               17.948       
        321.2482             9.86435               19.577       
        343.4143             12.1514               20.429       
         355.74              12.8368               20.588       
        361.185              12.3859               20.601       
        362.637               11.357               20.599       
        364.815              12.7166               22.873       
        367.1099             13.5048               22.871       
         370.26              14.1594               22.859       
        370.832              14.2535               22.856       
        376.508              14.8151               22.811       
        378.0216              14.542               22.794       
        380.292              15.3787               23.757       
        385.968              16.5851               23.685       
        392.4405             17.5798               23.579       
        419.5189             20.6793               22.919       
        448.4657             22.9922               21.97        
        459.032              23.5572               21.592       
        466.058              23.6325               21.335       
        467.9316             23.2794               21.266       
        470.742              23.9415               22.096       
        477.768              24.7959               21.838       
        479.4098             24.9438               21.777       
        512.4891             27.1205               20.561       
        547.8508              28.759               19.311       
        585.6525             30.0837               18.064       
        626.0625             31.1435               16.848       
        669.2609             32.0317               15.67        
        715.4399             32.7581               14.545       
        764.8052             33.3512               13.48        
        817.5768             33.8339               12.471       
        873.9896             34.2181               11.516       
        934.2948             34.5185               10.619       
        998.7612             34.8154               9.7821       
        1067.676             35.1027               8.8727       
        1141.345             35.1326               8.0514       
        1220.098             35.0842               7.3122       
        1304.285             34.9759               6.6472       
        1394.281              34.814               6.0491       
        1490.486             34.5998               5.4997       
        1593.329             34.3066               4.9797       
        1703.269             33.9135               4.5124       
        1820.795             33.3913               4.0948       
        1946.43               32.67                3.7178       
        2080.733             31.5783               3.3776       
        2224.304             29.5666               3.0723       
        2323.09               26.27                2.8904       
        2358.648             22.3765               2.8297       
        2368.13              17.9815               2.8139       
        2377.781             20.8709               11.274       
        2382.353             22.1655               11.232       
        2415.406             25.3224               10.933       
        2417.91              25.4136               10.911       
        2452.376             25.2771               10.612       
        2462.235             23.4796               10.53        
        2477.023              26.045               14.574       
        2513.994             28.7649               14.182       
        2541.848             29.8378               13.909       
        2643.746             31.7857               13.024       
        2684.212             31.6513               12.715       
        2695.002             30.8499               12.636       
        2711.189             32.0413               14.411       
        2717.235             32.3528               14.364       
        2751.654             33.4274               14.102       
        2904.724             35.7728               13.054       
        3105.15              37.5651               11.824       
        3319.406             38.7342               10.626       
        3548.445             39.5227               9.5442       
        3793.288             40.0708               8.5721       
        4055.024             40.4564               7.7022       
        4334.821             40.7284               6.9255       
        4633.924             40.9221               6.2323       
        4953.664             41.1966               5.5898       
        5295.467             41.2671               4.9939       
        5660.855             41.3296               4.4558       
        6051.453             41.3149               3.9755       
        6469.004              41.275               3.5503       
        6915.365             41.2187               3.1728       
        7392.525             41.1509               2.8352       
        7902.609             41.0753               2.5355       
        8447.89              40.9963               2.2696       
        9030.794             40.9235               2.0284       
        9653.919             40.8335               1.7989       
        10320.04             40.7336               1.5966       
        11032.12              40.626               1.4125       
        11793.34              40.509               1.2492       
        12607.08             40.3794               1.1014       
        13476.97             40.2325              0.97189       
        14406.88              40.061              0.85843       
        15400.95             39.8477              0.75891       
        16463.62             39.5528              0.67149       
        17599.61             39.0503              0.59468       
        18605.89             37.8959               0.5378       
        18813.98             37.1442              0.52714       
        18890.67             36.5692              0.52329       
        18966.61             34.9713              0.51953       
        19080.53             36.5985               3.6636       
        19365.31             38.0702               3.5646       
        20112.15             39.2483               3.3283       
        21499.88             40.0917               2.9812       
        22983.38              40.54                2.6792       
        24569.23             40.8303               2.408        
        26264.5              41.0302               2.1563       
        28076.76             41.1681               1.9214       
        30014.05             41.2581                1.71        
        32085.02             41.3169               1.522        
        34298.89              41.354               1.3548       
        36665.51             41.3762               1.2062       
        39195.43             41.4228                1.07        
        41899.92             41.4217              0.94541       
        44791.01             41.4125              0.83542       
        47881.59             41.3981              0.73828       
        51185.42             41.3804              0.65247       
        54717.21             41.3607              0.57661       
        58492.7              41.3401              0.50951       
        62528.7              41.3189                0.45        
        66843.18             41.2979              0.39747       
        71455.36             41.2773               0.3511       
        76385.78             41.2575              0.31015       
        81656.4              41.2389              0.27365       
        87290.69             41.2208              0.24026       
        93313.74             41.2031               0.2109       
        99752.39             41.1862              0.18514       
        106635.3             41.1703              0.16253       
        113993.1             41.1553              0.14269       
        121858.7             41.1415              0.12528       
        130266.9             41.1286              0.10999       
        139255.3             41.1167              0.096581      
        148864.0             41.1058              0.084806      
        159135.6             41.0958              0.07447       
        170115.9             41.0866              0.065397      
        181853.9             41.0783              0.057431      
        194401.8             41.0706              0.050438      
        207815.6             41.0637              0.044297      
        222154.8             41.0574              0.038906      
        237483.5             41.0517              0.034172      
        253869.9             41.0465              0.030015      
        271386.9             41.0418              0.026365      
        290112.6             41.0375              0.023159      
        310130.4             41.0337              0.020344      
        331529.4             41.0303              0.017872      
        354404.9             41.0271               0.0157       
        378858.8             41.0243              0.013793      
        405000.1             41.0218              0.012118      
        432945.1             41.0195              0.010647      
