# Nd
# Form Factors from Chantler Tables
# DOI: https://dx.doi.org/10.18434/T4HS32
# automatically retrived 2019-02-28 using URL https://physics.nist.gov/cgi-bin/ffast/ffast.pl

# For f_rel the second term, which is 3/5th of the Cromer-Liberman value, is used as suggested by Chantler.
# Real and imaginary part of the formfactors are: f'(E)=f1(E)+f_rel+f_NT and f''(E)=f2(E)
# see also original publication:  https://doi.org/10.1063/1.555974

# Z = 60
# f_rel = -0.5124 e/atom  (Relativistic correction estimate)
# f_NT = -0.013692 e/atom (Nuclear Thomson correction)


#        E (eV)            f1 (e/atom)          f2 (e/atom)     
         10.69                14.844              0.27095       
        11.42761             14.7192              0.30133       
        12.21612             14.5682              0.33573       
        13.05903              14.383              0.37466       
        13.9601              14.1508              0.41861       
        14.92335             13.8515              0.46815       
        15.95306             13.4503               0.5239       
        17.05382             12.8793              0.58645       
        18.23053             11.9837              0.65646       
        19.48844             10.2794              0.73456       
         20.678              5.53421              0.81122       
        20.83314             3.72966               0.8214       
        20.9945             -0.0960247            0.83203       
        21.0789              -7.02935             0.83761       
        21.2055              0.443496              14.593       
         21.522              7.05288               14.087       
        22.27063             12.1512               12.999       
        23.8073              16.2683               11.145       
        25.45001             18.2917               9.4814       
        27.20606             19.3604               8.0415       
        29.08327             19.8867               6.8589       
        31.09002             20.0933               5.9286       
        33.23523             20.1157               5.2254       
        35.52846             20.0381               4.7161       
         36.75               19.9757               4.5213       
        37.3125              19.9387               4.446        
        37.4625              19.9204               4.4273       
        37.6875              19.9195               4.4216       
        37.97993             19.9111               4.389        
         38.25               19.9006               4.3607       
        40.60054             19.7994               4.1768       
        43.40198             19.6963               4.0705       
        46.39671             19.6222               4.0486       
        49.59809             19.5881               4.0943       
        53.02035             19.6043               4.1942       
        56.67876             19.6841               4.3227       
        60.58959             19.7918               4.3219       
        64.77028             19.9005               4.3249       
        69.23942             19.9804               4.326        
        74.01695             20.0357               4.3208       
        79.12411             20.0504               4.3063       
        84.58368             19.9983               4.2801       
        90.41995             19.8321               4.2412       
        96.65893             19.4554               4.1888       
         100.0               20.9142               4.1569       
         100.5               20.8515               4.1519       
        101.0025             20.7848               4.1468       
       101.50751             20.7137               4.1416       
       102.01505             20.6377               4.1364       
       102.52513             20.5565               4.1311       
       103.03775             20.4695               4.1258       
       103.55294             20.3763               4.1203       
        104.0707             20.2762               4.1148       
       104.59106             20.1685               4.1092       
       105.11401             20.0523               4.1035       
       105.63958             19.9269               4.0978       
       106.16778             19.7909               4.0919       
       106.69862             19.6433               4.086        
       107.23211             19.4824               4.0801       
       107.76827             19.3065               4.074        
       108.30712             19.1135               4.0679       
       108.84865             18.9007               4.0617       
       109.39289             18.6649               4.0554       
       109.93986             18.4023               4.0491       
       110.48956             18.1078               4.0427       
       111.04201             17.7752               4.0362       
       111.59722             17.3961               4.0296       
        112.1552             16.9596               4.023        
       112.71598              16.451               4.0163       
       113.27956             15.8479               4.0096       
       113.84596             15.1193               4.0027       
       114.41519             14.2163               3.9958       
       114.98726             13.0569               3.9888       
        115.5622             11.4906               3.9818       
       116.14001             9.19412               3.9747       
       116.72071             5.25443               3.9675       
       117.30431             -5.79019              3.9602       
       117.48954             -31.9507              3.9579       
       117.51046             -31.8147              32.823       
       117.51048             -31.7939              32.823       
       117.89083             2.87043               31.525       
       118.48029             12.4334               29.635       
       119.07269             17.4057               27.872       
       119.66805             20.6974               26.23        
       120.26639             23.0793               24.699       
       120.86772             24.8815               23.273       
       121.47206             26.2796               21.943       
       122.07942             27.3799               20.703       
       122.68982              28.252               19.548       
       123.30327             28.9449               18.47        
       123.91979              29.494               17.466       
       124.53939              29.926               16.53        
       125.16208             30.2618               15.657       
       125.78789             30.5176               14.843       
       126.41683             30.7063               14.084       
       127.04892             30.8384               13.376       
       127.68416             30.9224               12.716       
       128.32258              30.965               12.101       
       128.96419             30.9715               11.527       
       129.60902             30.9458               10.992       
       130.25706              30.893               10.503       
       130.90835             30.8211               10.056       
       131.56289             30.7355               9.6484       
        132.2207             30.6403               9.2749       
       132.88181             30.5385               8.9324       
       133.54621             30.4323               8.618        
       134.21395             30.3234               8.3287       
       134.88502             30.2132               8.0624       
       135.55944             30.1027               7.8166       
       136.23724             29.9926               7.5896       
       136.91842             29.8837               7.3796       
       137.60302             29.7763               7.1851       
       138.29103             29.6708               7.0046       
       138.98249             29.5675               6.8369       
        139.6774             29.4665               6.6809       
       140.37579             29.3681               6.5356       
       141.07766             29.2722                6.4         
       141.78305              29.179               6.2735       
       142.49197             29.0884               6.1551       
       143.20443             29.0004               6.0443       
       143.92045             28.9151               5.9404       
       144.64005             28.8323               5.8429       
       145.36325              28.752               5.7512       
       146.09007             28.6742               5.665        
       146.82052             28.5987               5.5839       
       147.55462             28.5256               5.5073       
       148.29239             28.4547               5.4351       
       149.03386              28.386               5.3668       
       149.77903             28.3194               5.3022       
       150.52792             28.2548               5.2411       
       151.28056             28.1921               5.1831       
       152.03696             28.1313               5.1282       
       152.79715             28.0722               5.0759       
       153.56113             28.0149               5.0263       
       154.32894             27.9592               4.9791       
       155.10058              27.905               4.9342       
       155.87609             27.8523               4.8914       
       156.65547             27.8011               4.8505       
       157.43875             27.7512               4.8115       
       158.22594             27.7026               4.7743       
       159.01707             27.6552               4.7387       
       159.81215              27.609               4.7047       
       160.61121             27.5639               4.6721       
       161.41427             27.5199               4.6409       
       162.22134             27.4769               4.611        
       163.03245             27.4349               4.5824       
       163.84761             27.3938               4.5549       
       164.66685             27.3535               4.5285       
       165.49018             27.3141               4.5032       
       166.31763             27.2754               4.4789       
       167.14922             27.2375               4.4555       
       167.98497             27.2003               4.433        
       168.82489             27.1637               4.4114       
       169.66902             27.1277               4.3906       
       170.51736             27.0924               4.3706       
       171.36995             27.0575               4.3514       
        172.2268             27.0232               4.3329       
       173.08793             26.9893               4.3151       
       173.95337             26.9559               4.298        
       174.82314             26.9229               4.2815       
       175.69726             26.8903               4.2656       
       176.57574              26.858               4.2503       
       177.45862              26.826               4.2356       
       178.34591             26.7944               4.2215       
       179.23764             26.7629               4.2079       
       180.13383             26.7318               4.1948       
        181.0345             26.7008               4.1823       
       181.93967              26.67                4.1702       
       182.84937             26.6394               4.1587       
       183.76362             26.6088               4.1476       
       184.68244             26.5784               4.1369       
       185.60585             26.5481               4.1268       
       186.53388             26.5178               4.117        
       187.46655             26.4875               4.1077       
       188.40388             26.4572               4.0988       
        189.3459             26.4268               4.0903       
       190.29263             26.3964               4.0823       
       191.24409             26.3659               4.0746       
       192.20031             26.3352               4.0673       
       193.16131             26.3044               4.0605       
       194.12712             26.2733               4.054        
       195.09776             26.2421               4.0479       
       196.07325             26.2105               4.0421       
       197.05361             26.1786               4.0368       
       198.03888             26.1463               4.0318       
       199.02907             26.1137               4.0271       
       200.02422             26.0805               4.0229       
       201.02434             26.0468               4.0189       
       202.02946             26.0125               4.0154       
       203.03961             25.9776               4.0122       
       204.05481             25.9418               4.0093       
       205.07508             25.9052               4.0068       
       206.10046             25.8677               4.0047       
       207.13096              25.829               4.0029       
       208.16661             25.7891               4.0014       
       209.20745             25.7478               4.0003       
       210.25348             25.7048               3.9995       
       211.30475             25.6598               3.9991       
       212.36128             25.6127               3.999        
       213.42308             25.5629               3.9992       
        214.4902             25.5098               3.9998       
       215.56265             25.4528               4.0008       
       216.64046             25.3908               4.002        
       217.72366             25.3224               4.0036       
       218.81228             25.2454               4.0056       
       219.90634             25.1562               4.0079       
       221.00588             25.0481               4.0105       
        222.1109             24.9074               4.0134       
       223.22146             24.6945               4.0167       
       224.33757             24.1391               4.0204       
       224.47692              23.894               4.0208       
       224.72308             23.8879               5.025        
       225.45925             24.4907               5.0302       
       226.58655             24.7326               5.0384       
       227.71948             24.8514               5.047        
       228.85808             24.9255               5.056        
       230.00237             24.9759               5.0653       
       231.15238             25.0114               5.0749       
       232.30814             25.0365               5.085        
       233.46969             25.0536               5.0953       
       234.63703              25.064               5.106        
       235.81022             25.0685               5.1171       
       236.98927             25.0671               5.1285       
       238.17422             25.0592               5.1402       
       239.36509             25.0433               5.1523       
       240.56191             25.0153               5.1648       
       241.76472              24.963               5.1776       
       242.97355             24.8079               5.1907       
       243.15743             24.7223               5.1927       
       243.44258             24.7234               5.5238       
       244.18841             24.9173               5.533        
       245.40936             25.0122               5.5484       
        246.6364             25.0643               5.5641       
       247.86959             25.1008               5.5801       
       249.10893             25.1292               5.5964       
       250.35448             25.1523               5.6131       
       251.60625             25.1719               5.6301       
       252.86428             25.1888               5.6474       
        254.1286             25.2036               5.665        
       255.39925             25.2168               5.6829       
       256.67624             25.2287               5.7011       
       257.95962             25.2394               5.7196       
       259.24942             25.2493               5.7384       
       260.54567             25.2583               5.7575       
        261.8484             25.2666               5.7769       
       263.15764             25.2744               5.7966       
       264.47343             25.2816               5.8165       
       265.79579             25.2883               5.8368       
       267.12477             25.2947               5.8573       
        268.4604             25.3006               5.8781       
        269.8027             25.3063               5.8992       
       271.15171             25.3116               5.9205       
       272.50747             25.3167               5.9421       
       273.87001             25.3215               5.9639       
       275.23936              25.326               5.986        
       276.61556             25.3304               6.0084       
       277.99863             25.3345               6.031        
       279.38863             25.3384               6.0538       
       280.78557              25.342               6.0768       
        282.1895             25.3454               6.1001       
       283.60044             25.3486               6.1236       
       285.01845             25.3516               6.1473       
       286.44354             25.3542               6.1712       
       287.87576             25.3565               6.1953       
       289.31514             25.3585               6.2196       
       290.76171             25.3601               6.2441       
       292.21552             25.3612               6.2688       
        293.6766             25.3618               6.2937       
       295.14498             25.3618               6.3187       
       296.62071              25.361               6.3439       
       298.10381             25.3593               6.3692       
       299.59433             25.3565               6.3947       
        301.0923             25.3522               6.4204       
       302.59776             25.3463               6.4461       
       304.11075             25.3381               6.472        
        305.6313             25.3268               6.498        
       307.15946             25.3114               6.5242       
       308.69526              25.29                6.5504       
       310.23873              25.259               6.5767       
       311.78993             25.2109               6.6031       
       313.34888             25.1239               6.6296       
       314.91562             24.8279               6.6562       
        315.5152             24.8503               7.1864       
        316.4902             25.0924               7.2036       
       318.07265             25.2399               7.2314       
       319.66301             25.3283               7.2592       
       321.26133             25.3949               7.2871       
       322.86764             25.4502               7.315        
       324.48197             25.4986               7.3429       
       326.10438             25.5425               7.3709       
       327.73491             25.5832               7.3988       
       329.37358             25.6215               7.4268       
       331.02045              25.658               7.4547       
       332.67555             25.6932               7.4826       
       334.33893             25.7274               7.5105       
       336.01062             25.7607               7.5384       
       337.69068             25.7934               7.5662       
       339.37913             25.8256               7.5939       
       341.07602             25.8574               7.6216       
        342.7814              25.889               7.6492       
       344.49531             25.9203               7.6767       
       346.21779             25.9515               7.7041       
       347.94888             25.9826               7.7314       
       349.68862             26.0136               7.7586       
       351.43706             26.0446               7.7857       
       353.19425             26.0752               7.8126       
       354.96022             26.1063               7.8393       
       356.73502             26.1375               7.8659       
        358.5187             26.1687               7.8923       
       360.31129               26.2                7.9185       
       362.11285             26.2314               7.9445       
       363.92341             26.2629               7.9704       
       365.74303             26.2945               7.996        
       367.57174             26.3263               8.0214       
        369.4096             26.3582               8.0465       
       371.25665             26.3902               8.0715       
       373.11293             26.4224               8.0962       
        374.9785             26.4547               8.1206       
       376.85339             26.4872               8.1448       
       378.73766             26.5198               8.1687       
       380.63135             26.5526               8.1924       
        382.5345             26.5855               8.2157       
       384.44718             26.6186               8.2388       
       386.36941             26.6518               8.2616       
       388.30126             26.6852               8.2841       
       390.24276             26.7187               8.3062       
       392.19398             26.7523               8.3281       
       394.15495             26.7861               8.3496       
       396.12572              26.82                8.3708       
       398.10635              26.854               8.3916       
       400.09688             26.8882               8.412        
       402.09737             26.9224               8.4321       
       404.10785             26.9568               8.4518       
       406.12839             26.9912               8.4712       
       408.15904             27.0258               8.4902       
       410.19983             27.0604               8.5088       
       412.25083             27.0951               8.5271       
       414.31208             27.1299               8.5449       
       416.38364             27.1647               8.5624       
       418.46556             27.1997               8.5795       
       420.55789             27.2346               8.5962       
       422.66068             27.2696               8.6125       
       424.77398             27.3046               8.6284       
       426.89785             27.3397               8.6439       
       429.03234             27.3747               8.659        
        431.1775             27.4098               8.6736       
       433.33339             27.4449               8.6879       
       435.50006              27.48                8.7017       
       437.67756              27.515               8.7151       
       439.86595              27.55                8.7281       
       442.06528              27.585               8.7406       
        444.2756             27.6199               8.7527       
       446.49698             27.6548               8.7644       
       448.72947             27.6896               8.7756       
       450.97311             27.7244               8.7864       
       453.22798              27.759               8.7967       
       455.49412             27.7936               8.8066       
       457.77159             27.8281               8.8161       
       460.06045             27.8624               8.8251       
       462.36075             27.8967               8.8337       
       464.67255             27.9308               8.8418       
       466.99592             27.9647               8.8494       
        469.3309             27.9985               8.8566       
       471.67755             28.0322               8.8634       
       474.03594             28.0657               8.8696       
       476.40612              28.099               8.8752       
       478.78815              28.132               8.8803       
       481.18209             28.1649               8.8849       
        483.588              28.1975               8.8889       
       486.00594             28.2298               8.8925       
       488.43597             28.2619               8.8954       
       490.87815             28.2936               8.8979       
       493.33254              28.325               8.8998       
        495.7992             28.3561               8.9012       
        498.2782             28.3869               8.9021       
       500.76959             28.4172               8.9025       
       503.27344             28.4472               8.9024       
        505.7898             28.4768               8.9018       
       508.31875              28.506               8.9007       
       510.86035             28.5348               8.899        
       513.41465              28.563               8.8969       
       515.98172             28.5909               8.8943       
       518.56163             28.6182               8.8913       
       521.15444             28.6451               8.8877       
       523.76021             28.6715               8.8837       
       526.37901             28.6973               8.8792       
       529.01091             28.7226               8.8742       
       531.65596             28.7473               8.8688       
       534.31424             28.7715               8.863        
       536.98581              28.795               8.8566       
       539.67074              28.818               8.8499       
        542.3691             28.8404               8.8427       
       545.08094             28.8621               8.8351       
       547.80635             28.8832               8.8271       
       550.54538             28.9036               8.8186       
        553.2981             28.9233               8.8097       
        556.0646             28.9424               8.8005       
       558.84492             28.9607               8.7908       
       561.63914             28.9783               8.7807       
       564.44734             28.9952               8.7703       
       567.26958             29.0113               8.7595       
       570.10592             29.0267               8.7483       
       572.95645             29.0412               8.7367       
       575.82123             29.0549               8.7247       
       578.70034             29.0679               8.7124       
       581.59384              29.08                8.6998       
       584.50181             29.0912               8.6868       
       587.42432             29.1015               8.6735       
       590.36144              29.111               8.6598       
       593.31325             29.1195               8.6458       
       596.27982             29.1272               8.6315       
       599.26122             29.1338               8.6169       
       602.25752             29.1395               8.602        
       605.26881             29.1443               8.5867       
       608.29515              29.148               8.5712       
       611.33663             29.1507               8.5554       
       614.39331             29.1523               8.5393       
       617.46528             29.1529               8.5229       
        620.5526             29.1524               8.5063       
       623.65537             29.1508               8.4894       
       626.77364             29.1481               8.4722       
       629.90751             29.1442               8.4548       
       633.05705             29.1391               8.4371       
       636.22234             29.1328               8.4192       
       639.40345             29.1253               8.401        
       642.60046             29.1166               8.3826       
       645.81347             29.1066               8.364        
       649.04253             29.0952               8.3452       
       652.28775             29.0825               8.3262       
       655.54919             29.0685               8.3069       
       658.82693             29.0531               8.2875       
       662.12107             29.0362               8.2678       
       665.43167             29.0179               8.248        
       668.75883              28.998               8.228        
       672.10262             28.9767               8.2078       
       675.46314             28.9537               8.1874       
       678.84045             28.9292               8.1668       
       682.23466              28.903               8.1461       
       685.64583             28.8752               8.1253       
       689.07406             28.8456               8.1042       
       692.51943             28.8143               8.083        
       695.98202             28.7811               8.0617       
       699.46194             28.7461               8.0403       
       702.95924             28.7091               8.0187       
       706.47404             28.6702               7.9969       
       710.00641             28.6293               7.975        
       713.55644             28.5863               7.953        
       717.12423             28.5411               7.9308       
       720.70985             28.4937               7.9086       
        724.3134              28.444               7.8862       
       727.93496              28.392               7.8638       
       731.57464             28.3396               7.8412       
       735.23251             28.2827               7.8185       
       738.90867             28.2232               7.7958       
       742.60322              28.161               7.7729       
       746.31623             28.0961                7.75        
       750.04781             28.0283               7.727        
       753.79805             27.9575               7.7039       
       757.56704             27.8837               7.6807       
       761.35488             27.8066               7.6575       
       765.16165             27.7263               7.6342       
       768.98746             27.6425               7.6109       
        772.8324             27.5551               7.5874       
       776.69656              27.464               7.564        
       780.58004             27.3691               7.5405       
       784.48294              27.27                7.5169       
       788.40536             27.1668               7.4933       
       792.34738             27.0591               7.4696       
       796.30912             26.9467               7.4459       
       800.29067             26.8295               7.4222       
       804.29212             26.7072               7.3984       
       808.31358             26.5796               7.3746       
       812.35515             26.4463               7.3508       
       816.41693             26.3071               7.3269       
       820.49901             26.1616               7.3031       
        824.6015             26.0095               7.2792       
       828.72451             25.8504               7.2553       
       832.86813             25.6839               7.2314       
       837.03248             25.5094               7.2074       
       841.21764             25.3266               7.1835       
       845.42373             25.1348               7.1595       
       849.65084             24.9334               7.1356       
        853.8991             24.7218               7.1116       
       858.16859             24.4991               7.0877       
       862.45944             24.2646               7.0637       
       866.77173             24.0172               7.0398       
       871.10559              23.756               7.0158       
       875.46112             23.4797               6.9919       
       879.83843             23.1869               6.968        
       884.23762             22.8761               6.9441       
       888.65881             22.5455               6.9202       
        893.1021              22.193               6.8963       
       897.56761             21.8163               6.8724       
       902.05545             21.4123               6.8486       
       906.56573             20.9779               6.8248       
       911.09856             20.5089               6.801        
       915.65405             20.0005               6.7772       
       920.23232             19.4466               6.7534       
       924.83348             18.8399               6.7297       
       929.45765             18.1709               6.706        
       934.10494             17.4272               6.6823       
       938.77546             16.5924               6.6586       
       943.46934             15.6442               6.635        
       948.18668             14.5504               6.6115       
       952.92762             13.2624               6.5879       
       957.69226             11.7018               6.5644       
       962.48072             9.72743               6.541        
       967.29312             7.03962               6.5176       
       972.12959             2.76831               6.4942       
       976.99023             -10.4456              6.4709       
       977.60223             -22.7447              6.468        
       977.79777             -22.762               25.854       
       981.87519            -0.169924              25.714       
       986.78456             3.55695               25.547       
       991.71848             4.46341               25.381       
       996.67708              2.4008               25.217       
       999.36105             -8.95807              25.128       
       999.63891             -8.87175              37.894       
       1001.6605             3.16228               38.008       
       1006.6688             9.52744               37.726       
       1011.7021             12.9304               37.445       
       1016.7606             15.4145               37.166       
       1021.8444              17.413               36.89        
       1026.9536             19.1007               36.616       
       1032.0884             20.5681               36.343       
       1037.2489             21.8694               36.073       
       1042.4351             23.0399               35.805       
       1047.6473              24.104               35.539       
       1052.8855             25.0795               35.275       
       1058.1499             25.9799               35.013       
       1063.4407             26.8155               34.753       
       1068.7579             27.5945               34.495       
       1074.1017             28.3237               34.239       
       1079.4722             29.0083               33.985       
       1084.8695             29.6529               33.732       
       1090.2939             30.2614               33.482       
       1095.7454             30.8368               33.234       
       1101.2241             31.3819               32.987       
       1106.7302             31.8992               32.742       
       1112.2639             32.3905                32.5        
       1117.8252             32.8578               32.259       
       1123.4143             33.3025               32.02        
       1129.0314              33.726               31.782       
       1134.6765             34.1294               31.547       
       1140.3499             34.5139               31.313       
       1146.0517             34.8802               31.081       
       1151.7819             35.2293               30.851       
       1157.5408             35.5617               30.622       
       1163.3285              35.878               30.396       
       1169.1452             36.1787               30.171       
       1174.9909             36.4642               29.948       
       1180.8659             36.7347               29.726       
       1186.7702             36.9904               29.506       
        1192.704             37.2315               29.288       
       1198.6676             37.4577               29.071       
       1204.6609              37.669               28.856       
       1210.6842              37.865               28.643       
       1216.7376             38.0451               28.431       
       1222.8213             38.2085               28.221       
       1228.9354              38.354               28.013       
       1235.0801             38.4802               27.806       
       1241.2555             38.5848               27.601       
       1247.4618             38.6646               27.397       
       1253.6991             38.7151               27.195       
       1259.9676             38.7296               26.994       
       1266.2674              38.697               26.794       
       1272.5988             38.5988               26.596       
       1278.9618             38.3993                26.4        
       1285.3566             38.0146               26.205       
       1291.7833             37.1555               26.012       
       1296.5165             34.7103               25.871       
       1298.2423             34.6325               30.254       
       1298.2835             34.7017               30.252       
       1304.7335             37.9088               30.007       
       1311.2571             38.9968               29.763       
       1317.8134             39.7146               29.521       
       1324.4025             40.2643               29.282       
       1331.0245             40.7135               29.044       
       1337.6796             41.0926               28.808       
        1344.368             41.4174               28.575       
       1351.0899              41.696               28.343       
       1357.8453             41.9314               28.113       
       1364.6345             42.1234               27.897       
       1371.4577             42.2814               27.695       
        1378.315             42.3984               27.496       
       1385.2066             42.4558                27.3        
       1392.1326             42.4046               27.107       
       1399.0933             42.0209               26.916       
       1401.8615             41.3093               26.841       
       1403.7384             41.3414               28.63        
       1406.0887             42.1539               28.56        
       1413.1192              43.041               28.354       
       1420.1848             43.5497               28.151       
       1427.2857             43.9423               27.951       
       1434.4221             44.2742               27.753       
       1441.5942             44.5668               27.557       
       1448.8022             44.8307               27.364       
       1456.0462             45.0718               27.174       
       1463.3265             45.2936               26.985       
       1470.6431             45.4979               26.799       
       1477.9963             45.6869               26.623       
       1485.3863             45.8662               26.451       
       1492.8132             46.0356               26.282       
       1500.2773             46.1952               26.115       
       1507.7787             46.3447               25.95        
       1515.3176             46.4839               25.787       
       1522.8942             46.6118               25.627       
       1530.5086             46.7269               25.469       
       1538.1612             46.8266               25.312       
        1545.852             46.9058               25.158       
       1553.5812             46.9546               25.006       
       1561.3491             46.9488               24.855       
       1569.1559             46.7997               24.707       
       1573.2678             46.4683               24.63        
       1577.0017             46.4656               25.733       
       1577.3321             46.5384               25.726       
       1584.8867              47.264               25.583       
       1592.8111             47.6379               25.435       
       1600.7752             47.9239               25.289       
        1608.779             48.1694               25.144       
       1616.8229             48.3912               25.001       
        1624.907             48.5972               24.859       
       1633.0316             48.7917               24.719       
       1641.1967             48.9777               24.58        
       1649.4027             49.1569               24.442       
       1657.6497              49.33                24.301       
        1665.938             49.4977               24.158       
       1674.2677             49.6612               24.016       
        1682.639             49.8214               23.876       
       1691.0522             49.9783               23.731       
       1699.5075             50.1293               23.579       
        1708.005              50.275               23.428       
        1716.545             50.4161               23.278       
       1725.1278             50.5529               23.129       
       1733.7534             50.6858               22.982       
       1742.4222             50.8151               22.835       
       1751.1343             50.9411               22.689       
       1759.8899              51.064               22.544       
       1768.6894             51.1841                22.4        
       1777.5328             51.3014               22.257       
       1786.4205             51.4163               22.115       
       1795.3526             51.5288               21.974       
       1804.3294             51.6391               21.834       
        1813.351             51.7475               21.695       
       1822.4178             51.8542               21.557       
       1831.5299             51.9587               21.416       
       1840.6875             52.0603               21.275       
       1849.8909             52.1594               21.135       
       1859.1404             52.2561               20.996       
       1868.4361             52.3506               20.857       
       1877.7783             52.4428               20.72        
       1887.1672             52.5329               20.583       
        1896.603             52.6211               20.447       
        1906.086             52.7073               20.312       
       1915.6165             52.7916               20.178       
       1925.1945              52.874               20.045       
       1934.8205             52.9548               19.912       
       1944.4946             53.0338               19.78        
       1954.2171             53.1111               19.649       
       1963.9882             53.1868               19.519       
       1973.8081             53.2609               19.389       
       1983.6772             53.3335               19.26        
       1993.5955             53.4046               19.132       
       2003.5635             53.4743               19.005       
       2013.5813             53.5425               18.879       
       2023.6492             53.6094               18.753       
       2033.7675              53.675               18.628       
       2043.9363             53.7394               18.504       
        2054.156             53.8025               18.38        
       2064.4268             53.8641               18.257       
       2074.7489             53.9243               18.134       
       2085.1227             53.9832               18.012       
       2095.5483             54.0407               17.891       
        2106.026             54.0969               17.77        
       2116.5562              54.152               17.651       
       2127.1389             54.2057               17.532       
       2137.7746             54.2583               17.414       
       2148.4635             54.3098               17.296       
       2159.2058             54.3601               17.18        
       2170.0018             54.4093               17.064       
       2180.8519             54.4575               16.949       
       2191.7561             54.5045               16.835       
       2202.7149             54.5506               16.721       
       2213.7285             54.5957               16.607       
       2224.7971             54.6397               16.492       
       2235.9211             54.6827               16.379       
       2247.1007             54.7246               16.266       
       2258.3362             54.7654               16.154       
       2269.6279             54.8053               16.042       
        2280.976             54.8442               15.932       
       2292.3809             54.8821               15.822       
       2303.8428             54.9191               15.713       
        2315.362             54.9552               15.605       
       2326.9388             54.9904               15.498       
       2338.5735             55.0247               15.391       
       2350.2664             55.0582               15.286       
       2362.0177             55.0909               15.181       
       2373.8278             55.1227               15.077       
        2385.697             55.1538               14.973       
       2397.6254             55.1841               14.871       
       2409.6136             55.2137               14.769       
       2421.6616             55.2426               14.668       
       2433.7699             55.2707               14.568       
       2445.9388             55.2982               14.469       
       2458.1685             55.3251               14.37        
       2470.4593             55.3513               14.272       
       2482.8116             55.3768               14.175       
       2495.2257             55.4018               14.079       
       2507.7018             55.4262               13.983       
       2520.2403             55.4501               13.888       
       2532.8415             55.4734               13.794       
       2545.5057             55.4962               13.701       
       2558.2333             55.5185               13.608       
       2571.0244             55.5404               13.517       
       2583.8796             55.5618               13.425       
        2596.799             55.6852               13.335       
       2609.7829             55.7063               13.243       
       2622.8319             55.7268               13.152       
        2635.946             55.7467               13.061       
       2649.1257             55.7661               12.972       
       2662.3714             55.7849               12.883       
       2675.6832             55.8032               12.794       
       2689.0617             55.8211               12.707       
        2702.507             55.8385               12.62        
       2716.0195             55.8555               12.534       
       2729.5996             55.8721               12.448       
       2743.2476             55.8884               12.363       
       2756.9638             55.9043               12.279       
       2770.7486              55.92                12.196       
       2784.6024             55.9354               12.113       
       2798.5254             55.9506               12.03        
        2812.518             56.0125               11.948       
       2826.5806             56.0276               11.866       
       2840.7135             56.0425               11.785       
       2854.9171             56.0573               11.704       
       2869.1917              56.072               11.624       
       2883.5376             56.0868               11.545       
       2897.9553             56.1016               11.466       
       2912.4451             56.1167               11.388       
       2927.0073             56.1323               11.31        
       2941.6424             56.1642               11.233       
       2956.3506             56.1826               11.157       
       2971.1323             56.2027               11.081       
        2985.988             56.2254               11.006       
       3000.9179             56.2662               10.93        
       3015.9225             56.2762               10.844       
       3031.0021             56.2847               10.758       
       3046.1571              56.292               10.674       
       3061.3879             56.2981               10.589       
       3076.6949             56.3033               10.506       
       3092.0783             56.3075               10.423       
       3107.5387             56.3109               10.341       
       3123.0764             56.3136               10.26        
       3138.6918             56.3154               10.179       
       3154.3853             56.3367               10.099       
       3170.1572             56.3375               10.019       
        3186.008             56.3375                9.94        
        3201.938             56.3368               9.8615       
       3217.9477             56.3355               9.7836       
       3234.0374             56.3336               9.7064       
       3250.2076              56.331               9.6299       
       3266.4587             56.3279               9.554        
        3282.791             56.3242               9.4788       
       3299.2049              56.32                9.4042       
       3315.7009             56.3152               9.3302       
       3332.2794              56.31                9.2569       
       3348.9408             56.3042               9.1842       
       3365.6856             56.2979               9.1121       
        3382.514             56.2912               9.0407       
       3399.4265              56.284               8.9699       
       3416.4237             56.2763               8.8996       
       3433.5058             56.2682                8.83        
       3450.6733             56.2597               8.761        
       3467.9267             56.2507               8.6925       
       3485.2663             56.2413               8.6247       
       3502.6927             56.2315               8.5574       
       3520.2061             56.2213               8.4907       
       3537.8072             56.2107               8.4246       
       3555.4962             56.1997               8.3591       
       3573.2737             56.1883               8.2941       
        3591.14              56.1766               8.2297       
       3609.0957             56.1645               8.1658       
       3627.1412              56.152               8.1025       
       3645.2769             56.1391               8.0397       
       3663.5033             56.1259               7.9775       
       3681.8208             56.1124               7.9158       
       3700.2299             56.0985               7.8546       
       3718.7311             56.0842               7.794        
       3737.3247             56.0696               7.7339       
       3756.0114             56.0547               7.6743       
       3774.7914             56.0394               7.6152       
       3793.6654             56.0239               7.5566       
       3812.6337              56.008               7.4985       
       3831.6969             55.9917               7.4409       
       3850.8554             55.9752               7.3839       
       3870.1096             55.9584               7.3273       
       3889.4602             55.9412               7.2712       
       3908.9075             55.9237               7.2155       
        3928.452             55.9059               7.1584       
       3948.0943             55.8876               7.1016       
       3967.8347             55.8688               7.0453       
       3987.6739             55.8496               6.9895       
        4055.024             55.8798               6.8021       
        4334.821             55.5364               6.1071       
        4633.924             55.0956               5.4906       
        4953.664             54.5257               4.9438       
        5295.467             53.7453               4.4599       
        5660.855             52.5236               4.0284       
        6051.453             49.6236               3.6265       
        6083.742             49.0992               3.5963       
        6176.861             45.9862               3.5094       
        6201.692             42.3756               3.4869       
        6238.94              45.9501               10.477       
        6332.058             49.0157               10.157       
        6469.004              50.323               9.7134       
        6587.07              50.4754               9.3795       
        6687.892             49.4518               9.1261       
        6714.778             47.7614               9.0613       
        6755.107             49.7211               12.49        
        6855.93              51.6041               12.143       
        6915.365              52.118               11.947       
        6983.48              52.4797               11.729       
        7090.37              52.4047               11.409       
        7118.874             51.6595               11.33        
        7161.63              52.7687               12.981       
        7268.52              54.0478               12.689       
        7392.525             54.8829               12.368       
        7902.609             56.8673               11.191       
        8447.89              58.0697               10.105       
        9030.794             58.8974               9.0889       
        9653.919             59.4525               8.1175       
        10320.04             59.8121               7.2528       
        11032.12             60.0465               6.4859       
        11793.34              60.196               5.8052       
        12607.08             60.3595               5.1951       
        13476.97             60.4387               4.6369       
        14406.88              60.474               4.1298       
        15400.95             60.4403               3.6706       
        16463.62             60.3808               3.2654       
        17599.61             60.3052               2.9074       
        18813.98             60.2192               2.5908       
        20112.15             60.1261               2.3103       
        21499.88             60.0284               2.0622       
        22983.38             59.9273               1.8424       
        24569.23             59.8234               1.6476       
        26264.5              59.7171               1.4747       
        28076.76             59.6126               1.309        
        30014.05             59.4862               1.1578       
        32085.02              59.339               1.0217       
        34298.89             59.1595              0.90046       
        36665.51             58.9249               0.7938       
        39195.43              58.572              0.70034       
        41899.92              57.813              0.61837       
        42697.52             57.2777              0.59708       
        43351.06             56.0865              0.58049       
        43525.33              54.659              0.57619       
        43786.75             56.1019               3.3802       
        44440.28             57.4061               3.3033       
        44791.01             57.7322               3.2633       
        47881.59             58.9643               2.9336       
        51185.42             59.4877               2.6295       
        54717.21             59.7971               2.3545       
        58492.7              59.9994               2.1055       
        62528.7              60.1336               1.8805       
        66843.18             60.2238               1.6795       
        71455.36              60.284               1.4999       
        76385.78             60.3235               1.3393       
        81656.4               60.349               1.1944       
        87290.69             60.3916               1.0619       
        93313.74              60.392               0.9408       
        99752.39             60.3843              0.83358       
        106635.3             60.3715              0.73864       
        113993.1             60.3552              0.65458       
        121858.7             60.3369              0.58013       
        130266.9             60.3175              0.51419       
        139255.3             60.2975              0.45578       
        148864.0             60.2775              0.40404       
        159135.6             60.2577               0.3582       
        170115.9             60.2386              0.31759       
        181853.9             60.2201              0.28159       
        194401.8             60.2023              0.24998       
        207815.6             60.1858              0.22225       
        222154.8             60.1704              0.19761       
        237483.5             60.1561              0.17571       
        253869.9             60.1428              0.15625       
        271386.9             60.1305              0.13895       
        290112.6             60.1191              0.12357       
        310130.4             60.1086               0.1099       
        331529.4             60.0989              0.097751      
        354404.9              60.09               0.086948      
        378858.8             60.0818              0.077342      
        405000.1             60.0743              0.068801      
        432945.1             60.0674              0.061207      
