# Os
# Form Factors from Chantler Tables
# DOI: https://dx.doi.org/10.18434/T4HS32
# automatically retrived 2019-02-28 using URL https://physics.nist.gov/cgi-bin/ffast/ffast.pl

# For f_rel the second term, which is 3/5th of the Cromer-Liberman value, is used as suggested by Chantler.
# Real and imaginary part of the formfactors are: f'(E)=f1(E)+f_rel+f_NT and f''(E)=f2(E)
# see also original publication:  https://doi.org/10.1063/1.555974

# Z = 76
# f_rel = -0.9192 e/atom  (Relativistic correction estimate)
# f_NT = -0.016659 e/atom (Nuclear Thomson correction)


#        E (eV)            f1 (e/atom)          f2 (e/atom)     
        5.907383             5.43687                0.0         
        5.997802             5.15071                0.0         
        6.021914             4.85715                0.0         
        6.058082             5.12209              0.54897       
        6.148501             5.31598              0.54399       
        6.911593             4.82996              0.51397       
        7.017383             4.35271               0.5158       
        7.045593             3.81101              0.51659       
        7.087909             4.34862               1.566        
        7.193699             4.79431               1.5545       
         10.69               4.06001               2.8563       
        11.42761              3.8303               3.4898       
        12.21612             3.67817               4.2589       
        13.05903             3.64823               5.1556       
        13.9601              3.78702               6.1562       
        14.92335             4.13658               7.2192       
        15.95306             4.72647               8.2856       
        17.05382             5.56591               9.2837       
        18.23053             6.66196               10.137       
        19.48844              7.9237               10.778       
        20.83314             9.30795               11.152       
        22.27063              10.773               11.234       
        23.8073              12.1547               11.025       
        25.45001             13.4151               10.553       
        27.20606             14.4901               9.8659       
        29.08327             15.3372               9.0253       
        31.09002             15.9315               8.0922       
        33.23523             16.2636               7.1306       
        35.52846             16.3346               6.1929       
        37.97993             16.1358               5.316        
        40.60054             15.6027               4.5225       
        43.40198              14.375               3.8227       
         44.492              13.2731               3.587        
         45.173              11.3899               3.449        
         45.374              8.51787               3.4096       
         45.627              11.3463               7.4612       
        46.0685              12.5223               7.2925       
        46.2537              12.4059               7.2233       
         46.308              11.9946               8.0959       
        46.39671             12.8348               8.0585       
        46.5315              13.2592               8.0023       
         47.226              14.2971               7.721        
        49.59809             15.5895               6.8584       
        53.02035             15.9956               5.8309       
        56.67876             15.3856               4.9842       
         56.84               15.3069               4.952        
         57.71               14.4436               4.7851       
         57.942              13.4254               4.7425       
         58.29               14.4565               6.6712       
         59.16               15.3382               6.5044       
        60.58959             15.8224               6.2525       
        64.77028             16.2596               5.6534       
        69.23942             16.3067               5.1344       
        74.01695             16.1153               4.6965       
        79.12411             15.7335               4.3797       
         82.026              15.4516               4.2706       
        83.2815               15.298               4.2389       
        83.6163              15.2257               4.232        
        84.1185              15.2156               4.3005       
        84.58368             15.1878               4.2938       
         85.374              15.1242               4.2852       
        90.41995             14.6327               4.3116       
        96.65893             13.9803               4.5235       
        103.3284             13.2929               4.9436       
        110.4581             12.6108               5.5827       
        118.0797             11.9764               6.4502       
        126.2272             11.4366               7.5436       
        134.9368             11.0393               8.8536       
        144.2475             10.8266               10.362       
        154.2005             10.8645               12.028       
        164.8404             11.1817               13.805       
        176.2144             11.8116               15.635       
        188.3732             12.7716               17.455       
        201.3709             14.0558               19.145       
        215.2655             15.5949               20.628       
        230.1188              17.31                21.867       
        245.997              19.1095               22.842       
        262.9708             20.8401               23.542       
        267.344              21.1921               23.659       
        271.436               21.326               23.751       
        272.5272             21.0971               23.772       
        274.164              21.5895               24.465       
        278.256              22.2684               24.553       
        281.1158             22.6139               24.606       
        283.612              22.8744               24.646       
        287.953              23.1714               24.704       
        289.1106             23.0454               24.717       
        290.847               23.497               25.243       
        295.188              24.1977               25.291       
        300.5128             24.8701               25.334       
        321.2482             27.0645               25.351       
        343.4143              29.026               25.183       
        367.1099             30.8046               24.87        
        392.4405             32.3961               24.446       
        419.5189             33.7687               23.94        
        448.4657              34.775               23.377       
        458.836              34.8718               23.174       
        465.859              34.4856               23.037       
        467.7318             33.7681                23.0        
        470.541              34.6743               24.498       
        477.564              35.6373               24.371       
        479.4098             35.7982               24.338       
         500.0               38.4805               23.97        
         502.5               38.6059               23.926       
        505.0125             38.7279               23.881       
       507.53756             38.8468               23.837       
       510.07525             38.9629               23.792       
       512.62563             39.0762               23.747       
       515.18875             39.1868               23.702       
        517.7647             39.2949               23.658       
       520.35352             39.4002               23.612       
       522.95529             39.5028               23.567       
       525.57007             39.6023               23.522       
       528.19792             39.6985               23.476       
       530.83891             39.7909               23.431       
        533.4931             39.8784               23.385       
       536.16057             39.9595               23.339       
       538.84137             40.0312               23.293       
       541.53558              40.086               23.247       
       544.24325             40.0981                23.2        
       545.71853             40.0302               23.175       
       546.96447              40.016               23.52        
       547.28152             40.0883               23.514       
       549.69929             40.3421               23.475       
       552.44779             40.5153               23.43        
       555.21003             40.6601               23.385       
       557.98608              40.792               23.34        
       560.77601             40.9163               23.295       
       563.57989             41.0353               23.249       
       566.39779             41.1504               23.204       
       569.22978             41.2625               23.158       
       572.07593              41.372               23.112       
        574.9363             41.4793               23.066       
       577.81099             41.5847               23.02        
       580.70004             41.6883               22.974       
       583.60354             41.7903               22.928       
       586.52156             41.8908               22.881       
       589.45417             41.9898               22.835       
       592.40144             42.0874               22.788       
       595.36345             42.1836               22.741       
       598.34026             42.2784               22.694       
       601.33196             42.3719               22.647       
       604.33862              42.464                22.6        
       607.36032             42.5547               22.553       
       610.39712             42.6439               22.505       
        613.4491             42.7315               22.458       
       616.51635             42.8174               22.41        
       619.59893             42.9014               22.362       
       622.69693             42.9834               22.314       
       625.81041              43.063               22.266       
       628.93946             43.1398               22.218       
       632.08416             43.2133               22.169       
       635.24458             43.2827               22.121       
        638.4208             43.3465               22.072       
       641.61291             43.4026               22.023       
       644.82097             43.4467               21.974       
       648.04508              43.469               21.925       
        651.2853             43.4371               21.876       
       653.27272             43.3097               21.846       
       654.54173             43.0989               22.362       
       655.32723             43.3672               22.35        
       657.81444              43.646               22.313       
       661.10351             43.8496               22.264       
       664.40903             44.0079               22.215       
       667.73107             44.1467               22.166       
       671.06973             44.2746               22.117       
       674.42508             44.3953               22.068       
        677.7972              44.511               22.018       
       681.18619             44.6228               21.969       
       684.59212             44.7317               21.919       
       688.01508              44.838               21.869       
       691.45515             44.9424               21.819       
       694.91243             45.0449               21.769       
       698.38699             45.1459               21.719       
       701.87893             45.2455               21.669       
       705.38832              45.344               21.618       
       708.91526             45.4413               21.568       
       712.45984             45.5376               21.517       
       716.02214             45.6329               21.466       
       719.60225             45.7275               21.415       
       723.20026             45.8212               21.364       
       726.81626             45.9141               21.313       
       730.45034             46.0064               21.261       
        734.1026              46.098               21.21        
       737.77311             46.1889               21.158       
       741.46197             46.2792               21.106       
       745.16928              46.369               21.054       
       748.89513             46.4581               21.002       
       752.63961             46.5467               20.95        
        756.4028             46.6348               20.898       
       760.18482             46.7224               20.845       
       763.98574             46.8095               20.792       
       767.80567             46.8961               20.74        
        771.6447             46.9823               20.687       
       775.50292             47.0681               20.634       
       779.38044             47.1535               20.581       
       783.27734             47.2384               20.527       
       787.19373             47.3231               20.474       
       791.12969             47.4074               20.42        
       795.08534             47.4912               20.366       
       799.06077             47.5745               20.311       
       803.05607             47.6574               20.256       
       807.07135             47.7398               20.201       
       811.10671             47.8217               20.146       
       815.16224             47.9032               20.091       
       819.23806             48.0002               20.035       
       823.33425             48.0811               19.98        
       827.45092             48.1617               19.924       
       831.58817             48.2418               19.868       
       835.74611             48.3216               19.812       
       839.92484             48.4011               19.756       
       844.12447             48.4802                19.7        
       848.34509             48.5591               19.644       
       852.58682             48.6376               19.588       
       856.84975             48.7158               19.532       
        861.134              48.7938               19.475       
       865.43967             48.8715               19.418       
       869.76687              48.958               19.36        
        874.1157             49.0356               19.284       
       878.48628             49.1121               19.209       
       882.87871             49.1876               19.133       
        887.2931              49.262               19.058       
       891.72957             49.3355               18.982       
       896.18822             49.4081               18.907       
       900.66916             49.4797               18.831       
        905.1725             49.5505               18.756       
       909.69837             49.6204               18.681       
       914.24686             49.6895               18.606       
       918.81809             49.7578               18.531       
       923.41218             49.8253               18.456       
       928.02924             49.8921               18.381       
       932.66939             49.9581               18.307       
       937.33274             50.0233               18.232       
        942.0194             50.0879               18.157       
        946.7295             50.1518               18.083       
       951.46315             50.2151               18.008       
       956.22046             50.2779               17.934       
       961.00156             50.3401               17.86        
       965.80657             50.4019               17.787       
        970.6356             50.4632               17.713       
       975.48878             50.5242               17.64        
       980.36623              50.585               17.566       
       985.26806             50.6457               17.493       
        990.1944             50.7064               17.421       
       995.14537             50.7674               17.348       
       1000.1211             50.8291               17.275       
       1005.1217             50.8794               17.18        
       1010.1473             50.9231               17.084       
        1015.198             50.9648               16.99        
        1020.274             51.0051               16.896       
       1025.3754             51.0441               16.803       
       1030.5023             51.0818               16.71        
       1035.6548             51.1182               16.618       
       1040.8331             51.1535               16.526       
       1046.0372             51.1875               16.435       
       1051.2674             51.2205               16.345       
       1056.5238             51.2523               16.255       
       1061.8064              51.283               16.166       
       1067.1154             51.3127               16.078       
        1072.451             51.3414               15.99        
       1077.8132             51.3692               15.903       
       1083.2023             51.3959               15.816       
       1088.6183             51.4218               15.731       
       1094.0614             51.4468               15.64        
       1099.5317             51.4702               15.544       
       1105.0294             51.4919               15.45        
       1110.5545              51.512               15.356       
       1116.1073             51.5306               15.262       
       1121.6878             51.5475               15.17        
       1127.2963              51.563               15.078       
       1132.9328              51.577               14.987       
       1138.5974             51.5897               14.896       
       1144.2904             51.6009               14.807       
       1150.0119             51.6108               14.718       
       1155.7619             51.6194               14.63        
       1161.5407             51.6267               14.538       
       1167.3484             51.6322               14.444       
       1173.1852             51.6359               14.352       
       1179.0511              51.638               14.26        
       1184.9464             51.6384               14.169       
       1190.8711             51.6372               14.079       
       1196.8254             51.6344               13.989       
       1202.8096              51.63                 13.9        
       1208.8236              51.624               13.812       
       1214.8677             51.6166               13.725       
       1220.9421             51.6076               13.639       
       1227.0468             51.5971               13.553       
        1233.182             51.5851               13.468       
       1239.3479             51.5716               13.384       
       1245.5447             51.5566                13.3        
       1251.7724             51.5402               13.217       
       1258.0312             51.5223               13.135       
       1264.3214              51.503               13.053       
        1270.643             51.4822               12.972       
       1276.9962             51.4599               12.892       
       1283.3812             51.4362               12.813       
       1289.7981              51.411               12.734       
       1296.2471             51.3844               12.656       
       1302.7283             51.3562               12.578       
        1309.242             51.3266               12.501       
       1315.7882             51.2955               12.425       
       1322.3671             51.2629               12.349       
        1328.979             51.2288               12.274       
       1335.6239             51.1931                12.2        
        1342.302             51.1559               12.126       
       1349.0135             51.1172               12.053       
       1355.7586             51.0768               11.98        
       1362.5374             51.0348               11.908       
        1369.35              50.9912               11.837       
       1376.1968             50.9459               11.766       
       1383.0778              50.899               11.696       
       1389.9932             50.8503               11.626       
       1396.9431             50.7999               11.557       
       1403.9278             50.7477               11.488       
       1410.9475             50.6965               11.42        
       1418.0022             50.6406               11.353       
       1425.0922             50.5829               11.286       
       1432.2177             50.5233               11.219       
       1439.3788             50.4617               11.154       
       1446.5757              50.398               11.088       
       1453.8086             50.3322               11.023       
       1461.0776             50.2643               10.959       
        1468.383             50.1942               10.895       
       1475.7249             50.1218               10.832       
       1483.1035             50.0471               10.769       
        1490.519              49.97                10.707       
       1497.9716             49.8904               10.645       
       1505.4615             49.8083               10.584       
       1512.9888             49.7235               10.523       
       1520.5537             49.6359               10.463       
       1528.1565             49.5455               10.403       
       1535.7973             49.4522               10.344       
       1543.4763             49.3559               10.285       
       1551.1937             49.2563               10.226       
       1558.9496             49.1535               10.168       
       1566.7444             49.0472               10.111       
       1574.5781             48.9373               10.054       
        1582.451             48.8238               9.9971       
       1590.3633             48.7063               9.9408       
       1598.3151             48.5847               9.885        
       1606.3066             48.4589               9.8297       
       1614.3382             48.3286               9.7747       
       1622.4099             48.1935               9.7202       
       1630.5219             48.0536               9.6661       
       1638.6745             47.9084               9.6124       
       1646.8679             47.7619               9.5591       
       1655.1022             47.6054               9.5062       
       1663.3777             47.4428               9.4538       
       1671.6946             47.2738               9.4017       
       1680.0531             47.0978               9.3501       
       1688.4534             46.9144               9.2988       
       1696.8956             46.7232               9.2479       
       1705.3801             46.5237               9.1974       
        1713.907             46.3152               9.1473       
       1722.4766              46.097               9.0976       
       1731.0889             45.8685               9.0483       
       1739.7444             45.6289               8.9993       
       1748.4431             45.3771               8.9507       
       1757.1853             45.1121               8.9025       
       1765.9712             44.8328               8.8546       
       1774.8011             44.5378               8.8071       
       1783.6751             44.2255                8.76        
       1792.5935             43.8942               8.7132       
       1801.5565             43.5416               8.6667       
       1810.5642             43.1655               8.6206       
       1819.6171             42.7627               8.5749       
       1828.7151             42.3298               8.5295       
       1837.8587             41.8625               8.4844       
        1847.048             41.3555               8.4397       
       1856.2833             40.8023               8.3953       
       1865.5647             40.1943               8.3512       
       1874.8925             39.5206               8.307        
        1884.267             38.7663               8.2616       
       1893.6883             37.9108               8.2166       
       1903.1567             36.9241               8.1719       
       1912.6725             35.7604               8.1275       
       1922.2359             34.3427               8.0835       
       1931.8471              32.527               8.0397       
       1941.5063             29.9862               7.9963       
       1951.2138             25.6313               7.9532       
        1959.659             8.61191               7.9161       
       1960.5411             8.30119               25.515       
       1960.9699             12.1007               25.507       
       1970.7747             25.8504               25.329       
       1980.6286             29.0594               25.152       
       1990.5318             30.6406               24.976       
       2000.4844             31.3542               24.801       
       2010.4868             31.2867               24.628       
       2020.5393             29.9555               24.456       
       2029.9512              21.723               24.297       
        2030.642             15.5705               24.285       
        2031.649             21.7027               35.899       
       2040.7952              31.685               35.668       
       2050.9992             35.1111               35.413       
       2061.2542             37.3616               35.16        
       2071.5604             39.0993               34.909       
       2081.9182             40.5368               34.66        
       2092.3278             41.7719               34.413       
       2102.7895              42.859               34.168       
       2113.3034             43.8315               33.924       
       2123.8699             44.7118               33.683       
       2134.4893              45.516               33.443       
       2145.1617             46.2557               33.205       
       2155.8875             46.9397               32.969       
        2166.667             47.5751               32.735       
       2177.5003             48.1673               32.502       
       2188.3878             48.7207               32.271       
       2199.3297              49.239               32.041       
       2210.3264             49.7251               31.812       
        2221.378             50.1815               31.586       
       2232.4849             50.6101               31.361       
       2243.6473             51.0126               31.138       
       2254.8656             51.3903               30.916       
       2266.1399             51.7444               30.696       
       2277.4706             52.0754               30.478       
       2288.8579              52.384               30.261       
       2300.3022             52.6702               30.046       
       2311.8037              52.934               29.833       
       2323.3628             53.1748               29.621       
       2334.9796             53.3915               29.411       
       2346.6545             53.5826               29.202       
       2358.3878             53.7454               28.995       
       2370.1797             53.8762               28.789       
       2382.0306             53.9689               28.585       
       2393.9407             54.0142               28.383       
       2405.9104             53.9961               28.182       
        2417.94              53.8854               27.983       
       2430.0297             53.6185               27.785       
       2442.1798             53.0125               27.588       
       2454.3907             50.7883               27.393       
        2454.905             50.4981               27.385       
       2459.4951             50.5312               32.005       
       2466.6627             52.8129               31.869       
        2478.996             54.3202               31.639       
        2491.391             55.2373               31.41        
       2503.8479             55.9333               31.183       
       2516.3672             56.5092               30.957       
        2528.949             57.0078               30.733       
       2541.5938             57.4511               30.511       
       2554.3017             57.8515               30.287       
       2567.0732             58.2143               30.06        
       2579.9086             58.5432               29.836       
       2592.8082             58.8474               29.628       
       2605.7722             59.1334               29.422       
       2618.8011             59.4021               29.219       
       2631.8951             59.6547               29.017       
       2645.0545             59.8917               28.816       
       2658.2798             60.1122               28.614       
       2671.5712             60.3159               28.414       
       2684.9291             60.5026               28.216       
       2698.3537             60.6709               28.02        
       2711.8455             60.8188               27.825       
       2725.4047              60.942               27.633       
       2739.0317             61.0334               27.442       
       2752.7269             61.0781               27.253       
       2766.4905             61.0415               27.065       
        2780.323              60.801               26.879       
       2788.3189             60.2693               26.772       
       2794.2246             59.9526               28.526       
       2796.0812             60.3609               28.499       
       2808.1957             61.3624               28.323       
       2822.2367             61.9197               28.122       
       2836.3479             62.3245               27.922       
       2850.5296             62.6585               27.724       
       2864.7823             62.9495               27.528       
       2879.1062              63.21                27.332       
       2893.5017             63.4467               27.139       
       2907.9692              63.663               26.946       
       2922.5091             63.8605               26.756       
       2937.1216             64.0395               26.574       
       2951.8072             64.2081               26.401       
       2966.5662             64.3669               26.231       
       2981.3991             64.5145               26.063       
       2996.3061             64.6501               25.896       
       3011.2876              64.731               25.713       
        3026.344              64.73                25.525       
       3041.4758              64.499               25.339       
       3042.2811              64.465               25.329       
        3054.719             64.5986               26.294       
       3056.6831             64.7181               26.27        
       3071.9666             65.2592               26.085       
       3087.3264             65.5995                25.9        
        3102.763             65.8751               25.717       
       3118.2768             66.1167               25.536       
       3133.8682             66.3365               25.356       
       3149.5376             66.5407               25.177       
       3165.2853             66.7329               24.999       
       3181.1117             66.9155               24.822       
       3197.0172             67.0899               24.646       
       3213.0023             67.2567               24.469       
       3229.0673             67.4166               24.294       
       3245.2127             67.5705               24.119       
       3261.4387             67.7188               23.946       
       3277.7459              67.862               23.774       
       3294.1347             68.0005               23.603       
       3310.6053             68.1346               23.433       
       3327.1584             68.2647               23.264       
       3343.7941             68.3908               23.096       
       3360.5131             68.5133               22.93        
       3377.3157             68.6322               22.765       
       3394.2023             68.7479               22.601       
       3411.1733             68.8603               22.438       
       3428.2291             68.9697               22.276       
       3445.3703             69.0762               22.115       
       3462.5971             69.1798               21.955       
       3479.9101             69.2807               21.797       
       3497.3097              69.379               21.64        
       3514.7962             69.4748               21.483       
       3532.3702             69.5681               21.328       
       3550.0321              69.659               21.175       
       3567.7822             69.7477               21.022       
       3585.6211             69.8343               20.87        
       3603.5492             69.9186               20.72        
        3621.567              70.001               20.571       
       3639.6748             70.0814               20.423       
       3657.8732             70.1598               20.276       
       3676.1626             70.2365               20.13        
       3694.5434             70.3114               19.986       
       3713.0161             70.3846               19.843       
       3731.5812             70.4562                19.7        
       3750.2391             70.5263               19.559       
       3768.9903             70.5948               19.42        
       3787.8352              70.662               19.281       
       3806.7744             70.7278               19.143       
       3825.8083             70.7923               19.007       
       3844.9373             70.8555               18.871       
        3864.162             70.9176               18.737       
       3883.4828             70.9786               18.604       
       3902.9002             71.0386               18.472       
       3922.4147             71.3005               18.34        
       3942.0268             71.3589               18.202       
       3961.7369             71.4155               18.065       
       3981.5456             71.4702               17.929       
       4001.4533             71.5232               17.793       
       4021.4606             71.5746               17.659       
       4041.5679             71.6243               17.526       
       4061.7757             71.8105               17.395       
       4082.0846             71.8578               17.259       
        4102.495             71.9031               17.124       
       4123.0075             71.9466               16.991       
       4143.6226             71.9883               16.859       
       4164.3407             72.0284               16.728       
       4185.1624              72.067               16.598       
       4206.0882             72.1041               16.47        
       4227.1186             72.1398               16.342       
       4248.2542             72.1741               16.216       
       4269.4955             72.2071               16.091       
        4290.843              72.239               15.967       
       4312.2972             72.2696               15.844       
       4333.8587             72.2991               15.723       
        4355.528             72.3275               15.602       
       4377.3056             72.3548               15.483       
       4399.1921             72.3811               15.365       
       4421.1881             72.4064               15.247       
        4443.294             72.4308               15.131       
       4465.5105             72.4543               15.016       
       4487.8381             72.4769               14.902       
       4510.2772             72.4986               14.789       
       4532.8286             72.5195               14.677       
       4555.4928             72.5396               14.566       
       4578.2702              72.559               14.456       
       4601.1616             72.5776               14.347       
       4624.1674             72.5954               14.239       
       4647.2882             72.6126               14.132       
       4670.5247             72.6291               14.026       
       4693.8773              72.645               13.921       
       4717.3467             72.6603               13.817       
       4740.9334              72.675               13.714       
       4764.6381             72.6891               13.611       
       4788.4613             72.7026               13.51        
       4812.4036             72.7157               13.409       
       4836.4656             72.7282               13.31        
       4860.6479             72.7403               13.211       
       4884.9512             72.7519               13.113       
       4909.3759             72.7631               13.016       
       4933.9228             72.8768               12.917       
       4958.5924             72.8876               12.817       
       4983.3854             72.8976               12.719       
       5008.3023             72.9067               12.621       
       5033.3438             72.9151               12.524       
       5058.5105             72.9227               12.428       
       5083.8031             72.9297               12.333       
       5109.2221             72.9361               12.239       
       5134.7682             72.9418               12.145       
       5160.4421             72.9469               12.051       
       5186.2443             72.9513               11.959       
       5212.1755             72.9552               11.867       
       5238.2364             72.9585               11.776       
       5264.4276             72.9613               11.685       
       5290.7497             72.9635               11.596       
       5317.2034             72.9653               11.507       
       5343.7895             72.9665               11.419       
       5370.5084             72.9673               11.332       
       5397.3609             72.9676               11.246       
       5424.3477             72.9674               11.161       
       5451.4695             72.9669               11.075       
       5478.7268             72.9659               10.991       
       5506.1205             72.9645               10.907       
       5533.6511             72.9627               10.824       
       5561.3193             72.9605               10.742       
       5589.1259             73.0031               10.66        
       5617.0716             73.0006               10.577       
       5645.1569             72.9975               10.494       
       5673.3827             72.9938               10.413       
       5701.7496             72.9896               10.332       
       5730.2584             72.9849               10.252       
       5758.9096             72.9797               10.173       
       5787.7042              72.974               10.094       
       5816.6427             72.9678               10.016       
       5845.7259             72.9612               9.9388       
       5874.9546             72.9542               9.8622       
       5904.3293             72.9468               9.7863       
        5933.851             72.9389               9.7111       
       5963.5202             72.9307               9.6365       
       5993.3378              72.922               9.5626       
       6023.3045              72.913               9.4894       
        6053.421             72.9037               9.4168       
       6083.6882              72.894               9.3449       
       6114.1066             72.9019               9.2732       
       6144.6771             72.8917               9.2019       
       6175.4005              72.881               9.1312       
       6206.2775             72.8699               9.0611       
       6237.3089             72.8585               8.9917       
       6268.4954             72.8466               8.9228       
       6299.8379             72.8345               8.8546       
       6331.3371             72.8219               8.787        
       6362.9938              72.809               8.7199       
       6394.8088             72.7958               8.6534       
       6426.7828             72.7822               8.5876       
       6458.9167             72.7683               8.5223       
       6491.2113              72.754               8.4575       
       6523.6674             72.7394               8.3934       
       6556.2857             72.7245               8.3297       
       6589.0671             72.7093               8.2667       
       6622.0125             72.6938               8.2042       
       6655.1225             72.6779               8.1422       
       6688.3981             72.6617               8.0808       
       6721.8401             72.6452               8.0199       
       6755.4493             72.6284               7.9595       
       6789.2266             72.6113               7.8996       
       6823.1727             72.5939               7.8403       
       6857.2886             72.5762               7.7815       
        6891.575             72.5582               7.7232       
       6926.0329             72.5398               7.6653       
       6960.6631             72.5212               7.608        
       6995.4664             72.5023               7.5512       
       7030.4437              72.483               7.4949       
       7065.5959             72.4634               7.439        
       7100.9239             72.4435               7.3836       
       7136.4285             72.4233               7.3288       
       7172.1107             72.4028               7.2743       
       7207.9712              72.382               7.2204       
       7244.0111             72.3608               7.1669       
       7280.2311             72.3394               7.1138       
       7316.6323             72.3176               7.0612       
       7353.2155             72.2954               7.0091       
       7389.9815             72.2729               6.9574       
       7426.9314             72.2501               6.9061       
       7464.0661              72.227               6.8553       
       7501.3864             72.2035               6.8049       
       7538.8934             72.1796               6.7549       
       7576.5878             72.1554               6.7054       
       7614.4708             72.1309               6.6563       
       7652.5431             72.1059               6.6076       
       7690.8058             72.0806               6.5593       
       7729.2599             72.0549               6.5114       
       7767.9062             72.0288               6.4639       
       7806.7457             72.0023               6.4168       
       7845.7794             71.9754               6.3701       
       7885.0083              71.948               6.3238       
       7924.4334             71.9203               6.2779       
       7964.0555             71.8921               6.2324       
       8003.8758             71.8635               6.1872       
       8043.8952             71.8344               6.1425       
       8084.1147             71.8048               6.0981       
       8124.5352             71.7748               6.0541       
       8165.1579             71.7443               6.0104       
       8205.9837             71.7133               5.9671       
       8247.0136             71.6817               5.9242       
       8288.2487             71.6497               5.8816       
       8329.6899             71.6171               5.8394       
       8371.3384             71.5839               5.7976       
       8413.1951             71.5502               5.756        
        8455.261              71.516               5.7149       
       8497.5373             71.4811               5.6739       
        8540.025             71.4457               5.6323       
        9030.794             71.0612               5.1662       
        9653.919             70.2032               4.6054       
        10320.04             68.5702               4.114        
        10653.48             66.7008               3.9003       
        10816.55             63.9315               3.7989       
        10860.03             60.6949               3.7726       
        10925.25             63.9065               10.054       
        11032.12             66.1286               9.8862       
        11088.32             66.7292               9.7998       
        11793.34             69.0428               8.8051       
        12137.3              68.7669               8.3732       
        12323.08             67.5864               8.1516       
        12372.62             65.9983               8.094        
        12446.93             67.6734               11.198       
        12607.08             69.0535               10.954       
        12632.7               69.165               10.915       
        12708.64             69.4128               10.803       
        12903.16             69.4181               10.524       
        12955.03              68.733               10.451       
        13032.84             69.7742               11.989       
        13227.36             70.9684               11.716       
        13476.97             71.8031               11.38        
        14406.88             73.5317               10.243       
        15400.95             74.5193               9.2061       
        16463.62             75.1662               8.2709       
        17599.61             75.6001               7.421        
        18813.98             75.8884               6.6588       
        20112.15             76.0779               5.9775       
        21499.88             76.1991               5.3686       
        22983.38             76.3299               4.8164       
        24569.23              76.36                4.3229       
        26264.5              76.4321               3.8784       
        28076.76             76.4168               3.4496       
        30014.05             76.3631               3.0625       
        32085.02             76.2893               2.7212       
        34298.89             76.2029               2.4198       
        36665.51             76.1083               2.1537       
        39195.43             76.0079               1.9184       
        41899.92             75.9027               1.7101       
        44791.01             75.7929               1.5255       
        47881.59             75.6773               1.3611       
        51185.42             75.5514               1.2132       
        54717.21             75.4097               1.0816       
        58492.7              75.2406               0.9614       
        62528.7              75.0181              0.85345       
        66843.18             74.6783              0.75785       
        71455.36             73.9039              0.67312       
        72393.38             73.5326              0.65775       
        73501.44             72.4458              0.64032       
        73796.93             71.1446               0.6358       
        74240.15             72.4596               3.1906       
        75348.21             73.6472               3.1202       
        76385.78              74.116               3.0566       
        81656.4              75.1235               2.7456       
        87290.69             75.5687                2.46        
        93313.74              75.834               2.208        
        99752.39             76.0122               1.978        
        106635.3             76.1284               1.7681       
        113993.1             76.2052               1.5807       
        121858.7             76.2552               1.4134       
        130266.9             76.2863               1.2639       
        139255.3              76.304               1.1304       
        148864.0             76.3392               1.0107       
        159135.6             76.3387              0.90147       
        170115.9             76.3318               0.8041       
        181853.9             76.3209              0.71732       
        194401.8             76.3072              0.63996       
        207815.6             76.2917              0.57101       
        222154.8             76.2751              0.50952       
        237483.5              76.258               0.4547       
        253869.9             76.2408              0.40581       
        271386.9             76.2237              0.36221       
        290112.6             76.2068              0.32332       
        310130.4             76.1903              0.28863       
        331529.4             76.1742               0.2588       
        354404.9             76.1597              0.23298       
        378858.8             76.1466              0.20976       
        405000.1             76.1345              0.18887       
        432945.1             76.1234              0.17007       
