# Pa
# Form Factors from Chantler Tables
# DOI: https://dx.doi.org/10.18434/T4HS32
# automatically retrived 2019-02-27 using URL https://physics.nist.gov/cgi-bin/ffast/ffast.pl
#
# Z = 91
# f_rel = -2.5033 e/atom  (Relativistic correction estimate)
# f_NT = -0.019663 e/atom (Nuclear Thomson correction)


#        E (eV)            f1 (e/atom)          f2 (e/atom)     
         10.69               25.0708                0.0         
        11.42761             24.9705                0.0         
        12.21612             24.8477                0.0         
        13.05903             24.6946                0.0         
        13.9601              24.4998                0.0         
        14.92335             24.2445                0.0         
        15.95306              23.895                0.0         
        17.05382             23.3822                0.0         
        18.23053             22.5268                0.0         
        19.48844             20.5469                0.0         
        19.91416             18.8448                0.0         
        20.21897             15.2893                0.0         
        20.30025             10.9389                0.0         
        20.42217             15.6094               8.6095       
        20.72698             19.7167               8.2733       
        20.83314             20.4219               8.1605       
        22.27063             24.3846               6.8204       
        23.8073              25.7184               5.6906       
        25.45001             26.1112               4.7351       
        27.20606              25.566               3.9366       
        27.97422             24.5268               3.6451       
        28.4024              22.4967               3.4956       
        28.51658             19.9372               3.4572       
        28.68785             22.7492               8.5021       
        29.08327             25.1408               8.159        
        29.11602              25.251               8.1314       
        31.09002             28.0231               6.6795       
        33.23523             28.8788               5.5146       
        35.52846             29.2112               4.6362       
        37.97993             29.3172               3.9541       
        40.60054             29.2964               3.4099       
        43.40198             29.1722               2.9656       
        44.54936              29.071               2.8131       
        45.23124              28.932               2.7291       
        45.41307             28.7868               2.7074       
        45.68582              28.925               2.9484       
        46.39671             29.0279               2.8539       
        49.59809             28.9993               2.4863       
        53.02035             28.8226               2.1766       
        56.67876             28.5661               1.9157       
        60.58959              28.23                1.6925       
        64.77028             27.8004               1.4998       
        69.23942             27.2176               1.3325       
        74.01695             26.3971               1.1871       
        79.12411             25.1189               1.0607       
        84.58368             22.6037              0.95112       
        87.45598             19.4682              0.90207       
        88.79459              14.977              0.88094       
        89.15156             9.78526              0.87548       
         89.687              15.0191               10.962       
        90.41995             18.1167               10.842       
        91.02561             19.3811               10.745       
        94.74531             21.5288               10.18        
        96.1955              19.7449               9.974        
        96.65893             13.6294               9.9098       
        97.16228             20.3515               16.144       
        98.61247             23.9384               15.896       
        103.3284             28.5122               14.953       
        110.4581             32.1935               13.231       
        118.0797             34.4097               11.064       
        126.2272             35.4872               8.8921       
        134.9368             35.7756               7.0015       
        144.2475             35.5733               5.4869       
        154.2005             35.0857               4.3327       
        164.8404             34.4208               3.4783       
        176.2144             33.5341               2.8555       
        179.3891             33.1731               2.7202       
        182.1348             32.5794               2.614        
        182.867              32.0043               2.5872       
        183.9653             32.5005               3.6043       
        186.7111             32.8435               3.5009       
        188.3732             32.8928               3.4423       
        201.3709             32.6972               3.0665       
        215.2655             32.2041               2.7907       
        228.9513             31.5075               2.6069       
        230.1188             31.4129               2.5942       
        232.4557             31.1167                2.57        
        233.3902             30.7558               2.5607       
        234.7919              31.059               3.1961       
        238.2963             31.2429               3.1371       
        245.997              31.1804               3.0226       
        262.9708             30.6892                2.83        
        281.1158             29.9713               2.6972       
        300.5128              29.008               2.6116       
        303.408              28.8368               2.6025       
        308.052              28.5018               2.5895       
        309.2904             28.3273               2.5864       
        311.148              28.3342               2.7934       
        315.792              28.1673               2.785        
        321.2482             27.8892               2.7772       
        343.4143             26.4306               2.7633       
         352.31              25.6656               2.7641       
        357.7025             25.0689               2.7659       
        359.1405             24.8016               2.7665       
        361.2975              24.689               3.0222       
        363.776              24.4868               3.054        
         366.69               24.195               3.096        
        367.1099             24.1491               3.1025       
        369.344               23.88                3.1391       
        370.8288             23.6267               3.1653       
        373.056              23.4759               3.411        
        378.624              22.9352               3.5914       
        392.4405             21.3116               4.2586       
        419.5189             17.8707               6.8577       
        448.4657             14.9563               11.473       
        479.4098             13.7542               17.704       
        512.4891             14.9624               24.432       
        547.8508             18.4317               30.386       
        585.6525             23.3653               34.702       
        626.0625             28.7149               37.107       
        669.2609              33.392               37.79        
        694.036              34.8809               37.581       
        704.659               34.297               37.396       
        707.4918             32.7413               37.338       
        711.741              34.8461               40.747       
        715.4399             35.9109               40.683       
        722.364              37.1181               40.551       
        728.532              37.8521               40.421       
        739.683              38.3786               40.159       
        742.6566             37.6376               40.084       
        747.117              39.2231               42.107       
        758.268              41.3366               41.842       
        764.8052              42.228               41.677       
        817.5768             47.4197               40.17        
        873.9896             51.2441               38.376       
        934.2948              54.114               36.464       
        986.566              55.4733               34.914       
        998.7612             55.2614               34.569       
        1001.667             55.0287               34.483       
        1005.693             53.9388               34.36        
        1011.734              55.438               36.621       
        1026.834             57.1018               36.093       
        1067.676             59.2296               34.753       
        1141.345             61.6897               32.727       
        1199.814             63.0658               31.325       
        1218.179             63.3013               30.879       
        1220.098             63.2904               30.833       
        1223.076             63.1774               30.763       
        1230.422             63.5866               31.051       
        1248.786             64.1887               30.619       
        1304.285             65.3954               29.327       
        1359.358             66.2232               28.118       
        1380.164              66.325               27.685       
        1385.713              66.14                27.572       
        1394.281             66.5556               27.928       
        1414.842             67.0838               27.526       
        1490.486             68.2841               26.009       
        1593.329             69.3211               24.006       
        1703.269             70.0083               22.179       
        1820.795             70.4447               20.512       
        1946.43              70.6811               18.99        
        2080.733             70.8077               17.607       
        2224.304             70.7175               16.348       
        2377.781             70.4533               15.209       
        2541.848             69.9855               14.174       
        2717.235             69.2284               13.23        
        2904.724             68.0338               12.341       
        3105.15              66.0065               11.284       
        3319.406             60.9274               10.182       
        3372.964             58.1306               9.938        
        3424.591             52.0006               9.7128       
        3438.358              45.548               9.6543       
        3459.009             50.8881               21.709       
        3510.636             54.8531               22.103       
        3538.976             55.2403               22.332       
        3548.445             55.2074               22.411       
        3593.144             52.9824               22.795       
        3607.589             48.3109               22.924       
        3629.256              54.411               33.167       
        3683.424             60.7885               32.669       
        3793.288             66.3647               31.445       
        4055.024             71.8484               28.132       
        4090.324             71.9797               27.673       
        4152.931             71.0026               26.869       
        4169.626             68.9424               26.657       
        4194.669             71.5401               30.837       
        4257.276             74.3148               30.01        
        4334.821             76.0516               29.026       
        4633.924             79.3694               25.821       
        4900.882             80.5241               23.541       
        4953.664             80.4272               23.135       
        4975.895             80.2284               22.968       
        4995.899             79.5584               22.82        
        5025.904             80.4156               24.078       
        5100.918             81.3388               23.547       
        5259.562              82.148               22.501       
        5295.467             82.2146               22.277       
        5340.065             82.1358               22.004       
        5361.533             81.7427               21.874       
        5393.734             82.3772               22.649       
        5474.238             83.1425               22.178       
        5660.855             84.1112               21.15        
        6051.453             85.3779               19.257       
        6469.004             86.2622               17.544       
        6915.365             87.0698               15.966       
        7392.525             87.6251               14.461       
        7902.609             87.9055               13.104       
        8447.89              88.1798               11.893       
        9030.794             88.3335               10.76        
        9653.919             88.3089               9.6297       
        10320.04             88.2175               8.6257       
        11032.12             88.0177               7.7269       
        11793.34             87.7227               6.9284       
        12607.08             87.3451               6.2224       
        13476.97             86.8612               5.5962       
        14406.88             86.2028               5.0364       
        15400.95             85.1599               4.5327       
        16398.44             82.6512               4.1014       
        16463.62             82.2583               4.0757       
        16649.44              80.121               4.004        
        16716.37              77.141               3.9787       
        16816.77             80.1159               9.7771       
        17067.76              82.761               9.5479       
        17599.61             84.5178                9.09        
        18813.98             85.6756               8.1188       
        19907.43             85.0829               7.3656       
        20112.15             84.4801               7.2367       
        20212.13              83.853               7.175        
        20293.39             82.3394               7.1255       
        20415.27             83.8467               10.027       
        20682.51             85.0222               9.8181       
        20719.97             85.0933               9.7894       
        20999.08             85.1412               9.5803       
        21083.5              84.5398               9.5185       
        21210.12             85.4892               10.902       
        21499.88             86.5135               10.685       
        21526.69             86.5772               10.665       
        22983.38              88.499               9.6515       
        24569.23             89.4946               8.7034       
        26264.5               90.138               7.8518       
        28076.76             90.5887               7.0431       
        30014.05             90.8676               6.3053       
        32085.02             91.0439               5.6494       
        34298.89             91.2097               5.0605       
        36665.51             91.2605               4.5286       
        39195.43              91.273               4.0568       
        41899.92             91.2968               3.6335       
        44791.01             91.2866               3.2428       
        47881.59             91.2296               2.8953       
        51185.42             91.1591               2.5869       
        54717.21             91.0794               2.3132       
        58492.7              90.9933               2.0701       
        62528.7               90.902               1.8538       
        66843.18              90.806               1.6614       
        71455.36             90.7049               1.4901       
        76385.78             90.5963               1.3356       
        81656.4              90.4821               1.1945       
        87290.69             90.3401               1.063        
        93313.74             90.1568              0.94456       
        99752.39              89.892              0.83817       
        106635.3             89.3943              0.74429       
        110349.4             88.7393              0.70047       
        112038.4             87.7637               0.6819       
        112488.8             86.5975              0.67708       
        113164.4             87.8121               2.9643       
        113993.1             88.5011               2.9314       
        114853.4             88.8736               2.8977       
        121858.7             89.9853               2.6448       
        130266.9             90.4719               2.3843       
        139255.3             90.7481               2.1472       
        148864.0             90.9248               1.9332       
        159135.6             91.0438               1.7405       
        170115.9             91.1248               1.5653       
        181853.9             91.1789               1.4077       
        194401.8              91.214               1.2661       
        207815.6             91.2355               1.1388       
        222154.8              91.247               1.0245       
        237483.5             91.2508              0.92193       
        253869.9             91.2497              0.83043       
        271386.9              91.245               0.7481       
        290112.6             91.2377              0.67401       
        310130.4             91.2286              0.60732       
        331529.4             91.2181               0.5473       
        354404.9             91.2069              0.49325       
        378858.8             91.1953              0.44459       
        405000.1             91.1835              0.40077       
        432945.1             91.1717               0.3613       
