# Pb
# Form Factors from Chantler Tables
# DOI: https://dx.doi.org/10.18434/T4HS32
# automatically retrived 2019-02-27 using URL https://physics.nist.gov/cgi-bin/ffast/ffast.pl
#
# Z = 82
# f_rel = -1.9001 e/atom  (Relativistic correction estimate)
# f_NT = -0.017802 e/atom (Nuclear Thomson correction)


#        E (eV)            f1 (e/atom)          f2 (e/atom)     
        4.81343              3.38841                0.0         
        4.887105             2.16509                0.0         
        4.906751             0.708129               0.0         
        4.936221             2.21405               2.8636       
        5.009896             3.52849               2.8173       
         10.69               6.12159               1.3573       
        11.42761             5.67907               1.2692       
        11.45657             5.64148               1.2659       
        11.63193             5.19902               1.2463       
        11.67869             4.68408               1.2411       
        11.74883             5.21287               2.2376       
        11.92419              5.6605               2.1885       
        12.21612             5.90044               2.1105       
        13.05903             6.07869               1.9076       
        13.9601              6.02655               1.7018       
        14.92335              5.8149               1.4986       
        15.95306             5.45014               1.3107       
        17.05382              4.897                1.1436       
        18.23053             4.02014              0.99837       
         18.816              3.29032              0.93683       
         19.104              2.51533               0.9088       
        19.1808              1.79146              0.90157       
         19.296              2.34505               2.1978       
        19.48844             2.64261               2.227        
         19.584              2.68664               2.2421       
        20.83314             2.28932               2.4791       
         21.364              1.86513               2.6027       
         21.691              1.37937               2.6896       
        21.7782              0.980532              2.7143       
         21.909              1.22209               3.4302       
         22.236              1.30011               3.5893       
        22.27063              1.2942               3.6069       
        23.8073              0.654426              4.5357       
        25.45001             -0.14613              5.8566       
        27.20606            -0.849767              7.6272       
        29.08327             -1.26341              9.858        
        31.09002             -1.1852               12.488       
        33.23523            -0.430245              15.367       
        35.52846              1.1244               18.258       
        37.97993             3.49835               20.87        
        40.60054              6.584                22.914       
        43.40198              10.158               24.161       
        46.39671             13.9223               24.492       
        49.59809             17.5636               23.914       
        53.02035             20.8108               22.553       
        56.67876             23.4749               20.61        
        60.58959             25.4864               18.316       
        64.77028              26.79                15.89        
        69.23942             27.4834               13.511       
        74.01695              27.598               11.304       
        79.12411             27.1926               9.3444       
         84.28               26.0022               7.7509       
        84.58368             25.8519               7.6677       
         85.57               24.9747               7.4054       
         85.914              23.8305               7.3165       
         86.43               24.9774               9.3836       
         87.72               25.8943               8.9716       
        90.41995             26.3161               8.1838       
        96.65893             26.0953               6.6942       
        102.704              25.1822               5.616        
        103.3284             24.9953               5.5211       
        104.276              24.5098               5.382        
        104.6952             23.8244               5.3224       
        105.324              24.4499               6.514        
        106.896              24.9052               6.2743       
        110.4581             25.0147               5.7855       
        118.0797             24.6519               4.9423       
        126.2272             24.0125               4.2469       
        134.9368             23.0915               3.6741       
        135.338              23.0368               3.6512       
        137.4095             22.6752               3.5374       
        137.9619             22.4527               3.5082       
        138.7905             22.5043               3.778        
        140.042              22.4463               3.7306       
        140.862              22.3694               3.7011       
        142.1855             22.1897               3.6561       
        142.7571             22.0244               3.6377       
        143.6145             22.0538               3.8378       
        144.2475             22.0363               3.8247       
        144.354               22.031               3.8226       
        145.758              21.9311               3.7968       
        146.5635             21.8494               3.7837       
        147.1527             21.7475               3.775        
        148.0365             21.7399               3.8797       
        150.246              21.6148               3.8586       
        154.2005              21.311               3.844        
        164.8404             20.3907               3.9496       
        176.2144             19.3663               4.2868       
        188.3732             18.2872               4.8926       
        201.3709             17.2039               5.805        
        215.2655             16.1834               7.0547       
        230.1188             15.3101               8.6547       
        245.997              14.6794               10.591       
        262.9708             14.3928               12.815       
        281.1158             14.5214               15.243       
        300.5128             15.1233               17.763       
        321.2482             16.2088               20.243       
        343.4143             17.7399               22.547       
        367.1099             19.6145               24.557       
        392.4405             21.6247               26.183       
        404.642              22.4077               26.778       
        410.8355             22.5013               27.036       
        412.4871             22.1556               27.101       
        414.9645             22.7816               28.126       
        419.5189              23.458               28.328       
        421.158              23.6418               28.398       
        426.496              24.1533               28.613       
        433.024               24.544               28.852       
        434.7648             24.3947               28.912       
        437.376              24.9579               29.63        
        443.904              25.8547               29.868       
        448.4657             26.3693               30.021       
        479.4098             29.4526               30.808       
         500.0               32.9286               31.09        
         502.5               33.1489               31.112       
        505.0125             33.3686               31.131       
       507.53756             33.5874               31.149       
       510.07525             33.8055               31.163       
       512.62563             34.0228               31.176       
       515.18875             34.2391               31.186       
        517.7647             34.4546               31.194       
       520.35352             34.6691                31.2        
       522.95529             34.8826               31.204       
       525.57007             35.0951               31.205       
       528.19792             35.3065               31.204       
       530.83891             35.5167               31.201       
        533.4931             35.7259               31.196       
       536.16057             35.9338               31.189       
       538.84137             36.1404               31.18        
       541.53558             36.3457               31.169       
       544.24325             36.5497               31.155       
       546.96447             36.7523               31.14        
       549.69929             36.9535               31.123       
       552.44779             37.1531               31.104       
       555.21003             37.3512               31.083       
       557.98608             37.5477               31.059       
       560.77601             37.7424               31.034       
       563.57989             37.9353               31.007       
       566.39779             38.1263               30.978       
       569.22978             38.3153               30.946       
       572.07593             38.5022               30.913       
        574.9363             38.6869               30.878       
       577.81099             38.8693               30.842       
       580.70004             39.0492               30.803       
       583.60354             39.2264               30.762       
       586.52156             39.4008               30.72        
       589.45417             39.5721               30.675       
       592.40144             39.7403               30.63        
       595.36345             39.9049               30.582       
       598.34026             40.0658               30.533       
       601.33196             40.2226               30.482       
       604.33862             40.3748               30.43        
       607.36032              40.522               30.377       
       610.39712             40.6634               30.322       
        613.4491             40.7984               30.266       
       616.51635             40.9259               30.208       
       619.59893             41.0443               30.149       
       622.69693             41.1517               30.09        
       625.81041             41.2451               30.029       
       628.93946             41.3198               29.966       
       632.08416             41.3679               29.903       
       635.24458             41.3747               29.839       
        638.4208             41.3056               29.774       
       641.61291              41.045               29.708       
       643.72017             40.3933               29.665       
       644.82097             39.9332               31.478       
       645.27986             40.4764               31.469       
       648.04508              41.508               31.413       
        651.2853              42.058               31.348       
       654.54173             42.4568               31.282       
       657.81444             42.7904               31.215       
       661.10351              43.087               31.148       
       664.40903             43.3597               31.08        
       667.73107             43.6154               31.012       
       671.06973             43.8584               30.943       
       674.42508             44.0915               30.874       
        677.7972             44.3166               30.804       
       681.18619             44.5352               30.735       
       684.59212             44.7484               30.665       
       688.01508             44.9569               30.594       
       691.45515             45.1617               30.524       
       694.91243             45.3633               30.454       
       698.38699             45.5622               30.381       
       701.87893             45.7561               30.296       
       705.38832             45.9457               30.211       
       708.91526             46.1312               30.126       
       712.45984              46.313               30.04        
       716.02214             46.4911               29.954       
       719.60225             46.6657               29.867       
       723.20026              46.837               29.78        
       726.81626             47.0048               29.693       
       730.45034             47.1693               29.606       
        734.1026             47.3304               29.518       
       737.77311              47.487               29.425       
       741.46197             47.6378               29.329       
       745.16928              47.782               29.232       
       748.89513             47.9182               29.135       
       752.63961             48.0434               29.037       
        756.4028             48.1506               28.939       
       760.18482             48.2177               28.841       
       762.83052             48.1669               28.772       
       763.98574             47.8935               29.14        
       764.96944             48.2518               29.115       
       767.80567             48.5275               29.043       
        771.6447             48.7632               28.946       
       775.50292             48.9616               28.849       
       779.38044             49.1433               28.751       
       783.27734              49.315               28.654       
       787.19373             49.4796               28.556       
       791.12969             49.6387               28.458       
       795.08534             49.7933               28.36        
       799.06077             49.9439               28.263       
       803.05607             50.0911               28.165       
       807.07135             50.2351               28.067       
       811.10671             50.3762               27.969       
       815.16224             50.5144               27.871       
       819.23806              50.65                27.773       
       823.33425             50.7829               27.675       
       827.45092             50.9134               27.577       
       831.58817             51.0413               27.48        
       835.74611             51.1667               27.382       
       839.92484             51.2896               27.285       
       844.12447             51.4098               27.188       
       848.34509             51.5272               27.091       
       852.58682             51.6417               26.994       
       856.84975             51.7529               26.898       
        861.134              51.8605               26.801       
       865.43967             51.9637               26.705       
       869.76687             52.0616               26.61        
        874.1157             52.1525               26.514       
       878.48628             52.2333               26.419       
       882.87871             52.2978               26.324       
        887.2931             52.3291               26.229       
       891.72957             52.2414               26.135       
       892.30427             52.1938               26.123       
       894.89571             52.2641               26.61        
       896.18822             52.4183               26.583       
       900.66916             52.7122               26.49        
        905.1725             52.9177               26.398       
       909.69837             53.0949               26.306       
       914.24686             53.2579               26.214       
       918.81809             53.4124               26.123       
       923.41218             53.5613               26.032       
       928.02924             53.7064               25.942       
       932.66939             53.8488               25.852       
       937.33274             53.9892               25.762       
        942.0194             54.1285               25.673       
        946.7295              54.267               25.585       
       951.46315             54.4053               25.497       
       956.22046             54.5439               25.409       
       961.00156             54.6831               25.322       
       965.80657             54.8235               25.236       
        970.6356             54.9656               25.15        
       975.48878             55.1099               25.065       
       980.36623             55.2571               24.98        
       985.26806             55.4081               24.895       
        990.1944             55.5638               24.812       
       995.14537             55.7256               24.728       
       1000.1211             55.8951               24.644       
       1005.1217             56.0068               24.499       
       1010.1473             56.1129               24.356       
        1015.198             56.2144               24.213       
        1020.274             56.3117               24.072       
       1025.3754             56.4053               23.932       
       1030.5023             56.4957               23.793       
       1035.6548              56.583               23.655       
       1040.8331             56.6674               23.518       
       1046.0372             56.7493               23.383       
       1051.2674             56.8287               23.248       
       1056.5238             56.9058               23.114       
       1061.8064             56.9807               22.982       
       1067.1154             57.0536               22.851       
        1072.451             57.1244               22.72        
       1077.8132             57.1934               22.591       
       1083.2023             57.2607               22.463       
       1088.6183             57.3263               22.336       
       1094.0614             57.3899               22.208       
       1099.5317             57.4517               22.08        
       1105.0294             57.5116               21.954       
       1110.5545             57.5698               21.829       
       1116.1073             57.6263               21.704       
       1121.6878             57.6812               21.581       
       1127.2963             57.7344               21.459       
       1132.9328             57.7862               21.338       
       1138.5974             57.8364               21.217       
       1144.2904             57.8852               21.098       
       1150.0119             57.9326               20.979       
       1155.7619             57.9787               20.862       
       1161.5407             58.0234               20.745       
       1167.3484             58.0667               20.629       
       1173.1852             58.1089               20.514       
       1179.0511             58.1497                20.4        
       1184.9464             58.1894               20.287       
       1190.8711             58.2279               20.175       
       1196.8254             58.2652               20.064       
       1202.8096             58.3014               19.953       
       1208.8236             58.3364               19.844       
       1214.8677             58.3704               19.735       
       1220.9421             58.4033               19.627       
       1227.0468             58.4352               19.52        
        1233.182              58.466               19.414       
       1239.3479             58.5221               19.309       
       1245.5447             58.5507               19.204       
       1251.7724             58.5784               19.101       
       1258.0312             58.6051               18.998       
       1264.3214              58.631               18.896       
        1270.643             58.6559               18.794       
       1276.9962             58.6801               18.694       
       1283.3812             58.7034               18.594       
       1289.7981             58.7259               18.495       
       1296.2471             58.7475               18.396       
       1302.7283             58.7681               18.298       
        1309.242             58.7986                18.2        
       1315.7882             58.8173               18.103       
       1322.3671             58.8351               18.006       
        1328.979              58.852               17.911       
       1335.6239             58.8681               17.816       
        1342.302             58.8833               17.722       
       1349.0135             58.8976               17.628       
       1355.7586             58.9111               17.535       
       1362.5374             58.9237               17.443       
        1369.35              58.9356               17.352       
       1376.1968             58.9466               17.261       
       1383.0778             58.9568               17.171       
       1389.9932             58.9662               17.082       
       1396.9431             58.9748               16.994       
       1403.9278             58.9826               16.906       
       1410.9475             58.9896               16.818       
       1418.0022             58.9959               16.732       
       1425.0922             59.0014               16.646       
       1432.2177             59.0062               16.561       
       1439.3788             59.0102               16.476       
       1446.5757             59.0134               16.392       
       1453.8086             59.0159               16.308       
       1461.0776             59.0177               16.226       
        1468.383             59.0187               16.144       
       1475.7249              59.019               16.062       
       1483.1035             59.0186               15.981       
        1490.519             59.0174               15.901       
       1497.9716             59.0156               15.821       
       1505.4615              59.013               15.742       
       1512.9888             59.0098               15.663       
       1520.5537             59.0057               15.585       
       1528.1565             59.0009               15.507       
       1535.7973             58.9953               15.43        
       1543.4763             58.9889               15.353       
       1551.1937             58.9817               15.277       
       1558.9496             58.9737               15.201       
       1566.7444              58.965               15.126       
       1574.5781             58.9556               15.052       
        1582.451             58.9454               14.978       
       1590.3633             58.9344               14.904       
       1598.3151             58.9227               14.831       
       1606.3066             58.9103               14.759       
       1614.3382             58.8971               14.687       
       1622.4099             58.8832               14.616       
       1630.5219             58.8685               14.545       
       1638.6745             58.8531               14.474       
       1646.8679              58.837               14.404       
       1655.1022              58.82                14.33        
       1663.3777             58.8017               14.252       
       1671.6946             58.7819               14.173       
       1680.0531             58.7606               14.096       
       1688.4534             58.7378               14.019       
       1696.8956             58.7136               13.943       
       1705.3801             58.6879               13.867       
        1713.907             58.6608               13.791       
       1722.4766             58.6322               13.717       
       1731.0889             58.6022               13.643       
       1739.7444             58.5707               13.569       
       1748.4431             58.5376               13.49        
       1757.1853             58.5025               13.411       
       1765.9712             58.4654               13.333       
       1774.8011             58.4263               13.255       
       1783.6751             58.3851               13.177       
       1792.5935              58.342               13.101       
       1801.5565             58.2968               13.024       
       1810.5642             58.2495               12.949       
       1819.6171             58.2002               12.874       
       1828.7151             58.1487               12.799       
       1837.8587              58.095               12.725       
        1847.048             58.0391               12.652       
       1856.2833              57.981               12.579       
       1865.5647             57.9206               12.507       
       1874.8925             57.8579               12.435       
        1884.267             57.7928               12.364       
       1893.6883             57.7252               12.293       
       1903.1567              57.655               12.223       
       1912.6725             57.5823               12.153       
       1922.2359             57.5069               12.084       
       1931.8471             57.4287               12.015       
       1941.5063             57.3475               11.947       
       1951.2138             57.2635               11.879       
       1960.9699             57.1765               11.812       
       1970.7747             57.0864               11.745       
       1980.6286              56.993               11.678       
       1990.5318             56.8961               11.612       
       2000.4844             56.7957               11.547       
       2010.4868             56.6916               11.482       
       2020.5393             56.5837               11.417       
        2030.642             56.4717               11.353       
       2040.7952             56.3556               11.29        
       2050.9992              56.235               11.227       
       2061.2542             56.1098               11.164       
       2071.5604             55.9797               11.102       
       2081.9182             55.8445               11.04        
       2092.3278              55.704               10.978       
       2102.7895             55.5577               10.917       
       2113.3034             55.4054               10.857       
       2123.8699             55.2467               10.797       
       2134.4893             55.0813               10.737       
       2145.1617             54.9086               10.678       
       2155.8875             54.7283               10.619       
        2166.667             54.5397               10.561       
       2177.5003             54.3424               10.503       
       2188.3878             54.1355               10.445       
       2199.3297             53.9185               10.388       
       2210.3264             53.6905               10.331       
        2221.378             53.4505               10.275       
       2232.4849             53.1975               10.219       
       2243.6473             52.9304               10.163       
       2254.8656             52.6477               10.108       
       2266.1399             52.3478               10.053       
       2277.4706              52.029               9.9987       
       2288.8579             51.6891               9.9446       
       2300.3022             51.3286               9.8909       
       2311.8037             50.9384               9.8376       
       2323.3628             50.5178               9.7847       
       2334.9796             50.0624               9.7321       
       2346.6545             49.5667               9.6799       
       2358.3878             49.0235               9.628        
       2370.1797             48.4238               9.5765       
       2382.0306             47.7555               9.5254       
       2393.9407             47.0021               9.4746       
       2405.9104             46.1403               9.4242       
        2417.94              45.1349               9.3741       
       2430.0297             43.9297               9.3244       
       2442.1798             42.4256               9.275        
       2454.3907             40.4199               9.226        
       2466.6627             37.3738               9.1772       
        2478.996              30.498               9.1289       
       2483.3243             19.6236               9.112        
       2484.6756             19.3319               26.093       
        2491.391             32.1831               25.99        
       2503.8479             37.2476                25.8        
       2516.3672             39.4971               25.611       
        2528.949             40.7389               25.424       
       2541.5938             41.3497               25.238       
       2554.3017             41.3776               25.054       
       2567.0732             40.5726               24.872       
       2579.9086             37.3004               24.69        
       2584.8604             30.3317               24.62        
       2586.3394             30.2515               35.872       
       2592.8082             38.8634               35.735       
       2605.7722             43.3327               35.462       
       2618.8011             45.8091               35.19        
       2631.8951             47.6229               34.921       
       2645.0545             49.0858               34.654       
       2658.2798             50.3245               34.389       
       2671.5712             51.4043               34.126       
       2684.9291              52.362               33.865       
       2698.3537              53.226               33.605       
       2711.8455             54.0118               33.346       
       2725.4047             54.7318               33.09        
       2739.0317             55.3953               32.837       
       2752.7269             56.0094               32.585       
       2766.4905             56.5799               32.335       
        2780.323             57.1111               32.088       
       2794.2246             57.6066               31.842       
       2808.1957             58.0693               31.598       
       2822.2367             58.5016               31.357       
       2836.3479             58.9052               31.117       
       2850.5296             59.2816               30.879       
       2864.7823             59.6318               30.644       
       2879.1062             59.9563               30.41        
       2893.5017             60.2554               30.178       
       2907.9692             60.5288               29.948       
       2922.5091             60.7755               29.72        
       2937.1216             60.9939               29.494       
       2951.8072             61.1812               29.269       
       2966.5662             61.3329               29.047       
       2981.3991              61.442               28.826       
       2996.3061             61.4964               28.607       
       3011.2876             61.4556               28.374       
        3026.344             61.2783               28.137       
       3041.4758             60.8558               27.902       
       3056.6831             59.7132               27.669       
       3063.2417             58.1196               27.569       
       3069.5584             58.1766               32.297       
       3071.9666             59.0977               32.253       
       3087.3264             61.4244               31.972       
        3102.763             62.5402               31.694       
       3118.2768             63.3354               31.418       
       3133.8682             63.9735               31.145       
       3149.5376             64.5153               30.874       
       3165.2853              64.99                30.606       
       3181.1117             65.4139               30.34        
       3197.0172             65.7967               30.076       
       3213.0023              66.144               29.814       
       3229.0673             66.4611               29.568       
       3245.2127             66.7587               29.324       
       3261.4387             67.0379               29.084       
       3277.7459             67.2999               28.847       
       3294.1347             67.5459               28.612       
       3310.6053             67.7769               28.381       
       3327.1584             67.9937               28.152       
       3343.7941              68.197               27.926       
       3360.5131              68.387               27.703       
       3377.3157             68.5632               27.479       
       3394.2023              68.725               27.258       
       3411.1733             68.8717               27.039       
       3428.2291             69.0023               26.823       
       3445.3703             69.1148               26.609       
       3462.5971             69.2058               26.397       
       3479.9101             69.2696               26.188       
       3497.3097             69.2952               25.981       
       3514.7962             69.2587               25.777       
       3532.3702             69.0914               25.574       
       3549.0108             68.4316               25.386       
       3550.0321             68.3166               25.374       
       3559.3891             68.5065               27.055       
       3567.7822             69.1322               26.951       
       3585.6211             69.7623               26.733       
       3603.5492             70.1606               26.517       
        3621.567             70.4697               26.304       
       3639.6748             70.7282               26.092       
       3657.8732             70.9523               25.883       
       3676.1626             71.1499               25.676       
       3694.5434             71.3251               25.471       
       3713.0161             71.4799               25.267       
       3731.5812             71.6138               25.068       
       3750.2391             71.7294               24.878       
       3768.9903             71.8265               24.691       
       3787.8352             71.8988               24.506       
       3806.7744              71.933               24.324       
       3825.8083             71.8915               24.143       
       3842.4209             71.6468               23.988       
       3844.9373             71.5435               23.965       
       3858.9789             71.7617               24.895       
        3864.162             71.9632               24.847       
       3883.4828             72.3999               24.672       
       3902.9002             72.6895               24.498       
       3922.4147             72.9259               24.327       
       3942.0268             73.1335               24.157       
       3961.7369             73.3228               23.989       
       3981.5456             73.4991               23.822       
       4001.4533             73.6649               23.653       
       4021.4606             73.8213               23.484       
       4041.5679             73.9697               23.317       
       4061.7757             74.1114               23.151       
       4082.0846             74.2469               22.986       
        4102.495             74.3771               22.823       
       4123.0075             74.5025               22.661       
       4143.6226             74.6236               22.501       
       4164.3407             74.7406               22.342       
       4185.1624             74.8539               22.185       
       4206.0882             74.9638               22.029       
       4227.1186             75.0705               21.874       
       4248.2542             75.1742               21.721       
       4269.4955             75.2751               21.569       
        4290.843             75.3733               21.418       
       4312.2972              75.469               21.268       
       4333.8587             75.5623               21.12        
        4355.528             75.6533               20.973       
       4377.3056             75.7422               20.827       
       4399.1921              75.829               20.682       
       4421.1881             75.9139               20.539       
        4443.294              75.997               20.396       
       4465.5105             76.0783               20.255       
       4487.8381             76.1579               20.115       
       4510.2772              76.236               19.976       
       4532.8286             76.3126               19.838       
       4555.4928             76.3879               19.701       
       4578.2702             76.4619               19.565       
       4601.1616             76.5348               19.43        
       4624.1674             76.6068               19.295       
       4647.2882              76.677               19.159       
       4670.5247             76.7453               19.023       
       4693.8773             76.8119               18.889       
       4717.3467             76.8768               18.755       
       4740.9334             76.9402               18.622       
       4764.6381             77.0022               18.491       
       4788.4613             77.0627               18.36        
       4812.4036              77.122               18.23        
       4836.4656             77.1799               18.101       
       4860.6479             77.2367               17.973       
       4884.9512             77.2924               17.846       
       4909.3759             77.3469               17.72        
       4933.9228             77.4004               17.594       
       4958.5924              77.453               17.47        
       4983.3854             77.6836               17.342       
       5008.3023             77.7342               17.213       
       5033.3438              77.783               17.084       
       5058.5105             77.8302               16.956       
       5083.8031             77.8758               16.829       
       5109.2221              77.92                16.704       
       5134.7682             77.9627               16.579       
       5160.4421             78.0042               16.455       
       5186.2443             78.1673               16.33        
       5212.1755             78.2062               16.204       
       5238.2364             78.2434               16.079       
       5264.4276             78.2792               15.955       
       5290.7497             78.3134               15.832       
       5317.2034             78.3463               15.711       
       5343.7895             78.3778               15.59        
       5370.5084             78.4081               15.47        
       5397.3609             78.4371               15.352       
       5424.3477              78.465               15.234       
       5451.4695             78.4918               15.117       
       5478.7268             78.5174               15.002       
       5506.1205              78.542               14.887       
       5533.6511             78.5656               14.773       
       5561.3193             78.5882               14.661       
       5589.1259             78.6098               14.549       
       5617.0716             78.6305               14.438       
       5645.1569             78.6504               14.328       
       5673.3827             78.6693               14.22        
       5701.7496             78.6874               14.112       
       5730.2584             78.7048               14.005       
       5758.9096             78.7213               13.899       
       5787.7042             78.7371               13.794       
       5816.6427             78.7521               13.689       
       5845.7259             78.7664               13.586       
       5874.9546              78.78                13.484       
       5904.3293              78.793               13.382       
        5933.851             78.8053               13.282       
       5963.5202              78.817               13.182       
       5993.3378             78.8281               13.083       
       6023.3045             78.8386               12.985       
        6053.421             78.8485               12.888       
       6083.6882             78.8579               12.792       
       6114.1066             78.8668               12.697       
       6144.6771             78.9685               12.601       
       6175.4005             78.9767               12.505       
       6206.2775             78.9842               12.41        
       6237.3089              78.991               12.316       
       6268.4954             78.9971               12.222       
       6299.8379             79.0026               12.13        
       6331.3371             79.0075               12.038       
       6362.9938             79.0118               11.947       
       6394.8088             79.0155               11.857       
       6426.7828             79.0186               11.767       
       6458.9167             79.0213               11.678       
       6491.2113             79.0234               11.591       
       6523.6674              79.025               11.503       
       6556.2857             79.0261               11.417       
       6589.0671             79.0267               11.332       
       6622.0125             79.0269               11.247       
       6655.1225             79.0266               11.163       
       6688.3981             79.0259               11.079       
       6721.8401             79.0248               10.997       
       6755.4493             79.0233               10.915       
       6789.2266             79.0214               10.834       
       6823.1727             79.0191               10.753       
       6857.2886             79.0164               10.674       
        6891.575             79.0134               10.594       
       6926.0329              79.01                10.516       
       6960.6631             79.0063               10.439       
       6995.4664             79.0022               10.362       
       7030.4437             78.9979               10.285       
       7065.5959             78.9932               10.21        
       7100.9239             78.9883               10.135       
       7136.4285             79.0233               10.06        
       7172.1107             79.0179               9.9849       
       7207.9712             79.0122               9.9108       
       7244.0111             79.0061               9.8373       
       7280.2311             78.9996               9.7645       
       7316.6323             78.9928               9.6923       
       7353.2155             78.9856               9.6208       
       7389.9815             78.9781               9.5498       
       7426.9314             78.9703               9.4795       
       7464.0661             78.9622               9.4097       
       7501.3864             78.9538               9.3406       
       7538.8934             78.9451               9.2721       
       7576.5878             78.9361               9.2041       
       7614.4708             78.9268               9.1367       
       7652.5431             78.9173               9.0699       
       7690.8058             78.9075               9.0037       
       7729.2599             78.9147               8.9377       
       7767.9062             78.9045               8.8719       
       7806.7457              78.894               8.8062       
       7845.7794             78.8832               8.7411       
       7885.0083             78.8722               8.6765       
       7924.4334             78.8608               8.6125       
       7964.0555             78.8491               8.549        
       8003.8758             78.8371               8.4861       
       8043.8952             78.8249               8.4238       
       8084.1147             78.8125               8.3619       
       8124.5352             78.7998               8.3006       
       8165.1579             78.7868               8.2398       
       8205.9837             78.7736               8.1792       
       8247.0136             78.7602               8.119        
       8288.2487             78.7466               8.0593       
       8329.6899             78.7328               8.0001       
       8371.3384             78.7187               7.9415       
       8413.1951             78.7045               7.8833       
        8455.261             78.6901               7.8257       
       8497.5373             78.6756               7.7685       
        8540.025              78.661               7.7118       
        9030.794             78.6366               7.0842       
        9653.919             78.2954               6.337        
        10320.04             77.8206               5.6779       
        11032.12             77.1762               5.0898       
        11793.34             76.1947               4.5557       
        12607.08             74.0992               4.0822       
        12774.5              73.1416               3.9953       
        12970.02             70.4638               3.8979       
        13022.16             67.3245               3.8726       
        13100.38             70.4488               9.9729       
        13295.9              73.2095               9.7275       
        13476.97             74.2235               9.5058       
        14406.88             75.7933               8.4714       
        14896.0               75.37                7.9928       
        15124.0              74.1555               7.784        
        15184.8              72.5905               7.7297       
        15276.0               74.201               10.761       
        15400.95             75.1978               10.613       
        15504.0              75.5924               10.493       
        15543.58             75.6951               10.447       
        15781.5              75.7392               10.18        
        15844.94             75.0825               10.11        
        15940.1              76.0919               11.594       
        16178.02             77.2456               11.331       
        16463.62             78.0037               11.029       
        17599.61             79.6648               9.9294       
        18813.98              80.599               8.9312       
        20112.15             81.2072               8.033        
        21499.88             81.6163               7.2192       
        22983.38             81.8914               6.4893       
        24569.23             82.0773               5.8363       
        26264.5              82.2675               5.2514       
        28076.76             82.3534               4.6894       
        30014.05             82.3744               4.1819       
        32085.02              82.422               3.7254       
        34298.89             82.3775               3.3123       
        36665.51             82.3113               2.9473       
        39195.43             82.2314               2.6246       
        41899.92             82.1424               2.339        
        44791.01             82.0471               2.0861       
        47881.59             81.9471               1.8619       
        51185.42             81.8428               1.6631       
        54717.21             81.7338               1.4866       
        58492.7              81.6181               1.328        
        62528.7              81.4905               1.186        
        66843.18             81.3447               1.0596       
        71455.36             81.1664              0.94428       
        76385.78             80.9221              0.84086       
        81656.4              80.5139              0.74709       
        86244.41             79.6017              0.67514       
        87290.69             78.9273              0.66026       
        87564.48             78.5581              0.65646       
        87916.5              77.3094              0.65162       
        88444.52             78.6113               3.1021       
        89764.59             79.7499               3.0313       
        93313.74             80.6837               2.8524       
        99752.39             81.3428               2.5665       
        106635.3             81.6907               2.3054       
        113993.1              81.907               2.0695       
        121858.7             82.0504               1.8573       
        130266.9             82.1481               1.6646       
        139255.3             82.2125               1.4907       
        148864.0             82.2539               1.3349       
        159135.6              82.279               1.1954       
        170115.9             82.2923               1.0706       
        181853.9             82.2972               0.9589       
        194401.8             82.2958              0.85844       
        207815.6             82.2896              0.76852       
        222154.8             82.2802               0.6881       
        237483.5             82.2685              0.61616       
        253869.9             82.2554               0.5518       
        271386.9             82.2414              0.49421       
        290112.6              82.227              0.44267       
        310130.4             82.2125              0.39654       
        331529.4             82.1982              0.35525       
        354404.9             82.1842              0.31829       
        378858.8             82.1707              0.28519       
        405000.1             82.1578              0.25556       
        432945.1             82.1455              0.22902       
