# Pm
# Form Factors from Chantler Tables
# DOI: https://dx.doi.org/10.18434/T4HS32
# automatically retrived 2019-02-28 using URL https://physics.nist.gov/cgi-bin/ffast/ffast.pl

# For f_rel the second term, which is 3/5th of the Cromer-Liberman value, is used as suggested by Chantler.
# Real and imaginary part of the formfactors are: f'(E)=f1(E)+f_rel+f_NT and f''(E)=f2(E)
# see also original publication:  https://doi.org/10.1063/1.555974

# Z = 61
# f_rel = -0.5334 e/atom  (Relativistic correction estimate)
# f_NT = -0.014078 e/atom (Nuclear Thomson correction)


#        E (eV)            f1 (e/atom)          f2 (e/atom)     
         10.69               12.5974              0.24241       
        11.42761             12.4613              0.27242       
        12.21612             12.3126              0.30634       
        13.05903             12.1106              0.34476       
        13.9601              11.8573              0.38832       
        14.92335             11.5312              0.43773       
        15.95306             11.0943              0.49378       
        17.05382             10.4739              0.55717       
        18.23053             9.50254              0.62855       
        19.48844             7.65798              0.70875       
         20.678              2.52909              0.78801       
        20.83314             0.578709             0.79858       
        20.9945              -3.55699             0.80963       
        21.0789              -11.0546             0.81543       
        21.2055              -2.96724              15.691       
         21.522              4.18486               15.134       
        22.27063             9.69595               13.936       
        23.8073              14.1247               11.898       
        25.45001             16.2788               10.082       
        27.20606             17.3987               8.5183       
        29.08327             17.9337               7.2406       
        31.09002              18.125               6.2405       
        33.23523             18.1188               5.4887       
        35.52846             18.0053               4.9481       
         36.75                17.923               4.743        
        37.3125              17.8768               4.6642       
        37.4625              17.8559               4.6447       
        37.6875              17.8515               4.6381       
        37.97993             17.8383               4.6041       
         38.25               17.8235               4.5747       
        40.60054             17.6842               4.3856       
        43.40198             17.5358               4.282        
        46.39671              17.412                4.27        
        49.59809             17.3214               4.3313       
        53.02035             17.2687               4.4514       
        56.67876             17.2569               4.6186       
        60.58959             17.2887               4.8239       
        64.77028             17.3807               5.0598       
        69.23942              17.51                5.3207       
        74.01695              17.699               5.6013       
        79.12411             17.9251               5.6952       
        84.58368             18.0861               5.715        
        90.41995             18.1521               5.7131       
        96.65893             18.0626               5.688        
         100.0               21.0426               5.6661       
         100.5                21.013               5.6624       
        101.0025             20.9808               5.6585       
       101.50751             20.9459               5.6545       
       102.01505             20.9081               5.6503       
       102.52513             20.8671               5.6461       
       103.03775             20.8226               5.6417       
       103.55294             20.7745               5.6371       
        104.0707             20.7223               5.6324       
       104.59106             20.6659               5.6276       
       105.11401             20.6047               5.6227       
       105.63958             20.5384               5.6176       
       106.16778             20.4664               5.6124       
       106.69862             20.3882               5.6071       
       107.23211             20.3033               5.6016       
       107.76827             20.2107               5.596        
       108.30712             20.1098               5.5903       
       108.84865             19.9996               5.5844       
       109.39289             19.8788               5.5784       
       109.93986             19.7461               5.5723       
       110.48956               19.6                5.5661       
       111.04201             19.4386               5.5597       
       111.59722             19.2594               5.5532       
        112.1552             19.0597               5.5465       
       112.71598             18.8364               5.5398       
       113.27956              18.584               5.5329       
       113.84596             18.2973               5.5259       
       114.41519             17.9689               5.5187       
       114.98726             17.5888               5.5114       
        115.5622             17.1433               5.5041       
       116.14001              16.613               5.4965       
       116.72071              15.969               5.4889       
       117.30431             15.1662               5.4811       
       117.89083             14.1287               5.4732       
       118.48029             12.7149               5.4652       
       119.07269             10.6144               5.4571       
       119.66805             6.90986               5.4488       
       120.26639             -5.15134              5.4405       
       120.38579             -22.5841              5.4388       
        120.4142             -22.4362              30.45        
       120.86772             6.71061               29.192       
       121.47206             14.2183               27.62        
       122.07942             18.3192               26.151       
       122.68982             21.0848               24.777       
       123.30327             23.1102               23.493       
       123.91979              24.658               22.293       
       124.53939              25.87                21.172       
       125.16208             26.8329               20.123       
       125.78789             27.6041               19.143       
       126.41683             28.2237               18.226       
       127.04892             28.7212               17.369       
       127.68416             29.1188               16.568       
       128.32258             29.4339               15.818       
       128.96419              29.68                15.118       
       129.60902              29.868               14.462       
       130.25706             30.0066               13.849       
       130.90835             30.1029               13.276       
       131.56289             30.1627               12.739       
        132.2207             30.1903               12.237       
       132.88181             30.1888               11.769       
       133.54621             30.1633               11.339       
       134.21395             30.1206               10.946       
       134.88502             30.0653               10.586       
       135.55944             30.0009               10.255       
       136.23724             29.9301               9.9501       
       136.91842             29.8548               9.6696       
       137.60302             29.7764               9.4107       
       138.29103             29.6963               9.1715       
       138.98249             29.6153                8.95        
        139.6774             29.5341               8.7448       
       140.37579             29.4533               8.5542       
       141.07766             29.3734               8.377        
       141.78305             29.2947               8.2121       
       142.49197             29.2175               8.0583       
       143.20443             29.1419               7.9147       
       143.92045             29.0681               7.7804       
       144.64005             28.9962               7.6547       
       145.36325             28.9262               7.5368       
       146.09007             28.8582               7.4261       
       146.82052             28.7923               7.3221       
       147.55462             28.7283               7.2242       
       148.29239             28.6663               7.1319       
       149.03386             28.6063               7.0448       
       149.77903             28.5482               6.9625       
       150.52792              28.492               6.8846       
       151.28056             28.4376               6.8109       
       152.03696             28.3849               6.7409       
       152.79715              28.334               6.6745       
       153.56113             28.2847               6.6114       
       154.32894              28.237               6.5514       
       155.10058             28.1909               6.4942       
       155.87609             28.1462               6.4397       
       156.65547             28.1029               6.3876       
       157.43875              28.061               6.3379       
       158.22594             28.0204               6.2903       
       159.01707              27.981               6.2447       
       159.81215             27.9428               6.2011       
       160.61121             27.9057               6.1592       
       161.41427             27.8697               6.119        
       162.22134             27.8348               6.0804       
       163.03245             27.8008               6.0432       
       163.84761             27.7677               6.0075       
       164.66685             27.7356               5.9731       
       165.49018             27.7042               5.9399       
       166.31763             27.6737               5.9079       
       167.14922             27.6439               5.877        
       167.98497             27.6148               5.8472       
       168.82489             27.5864               5.8183       
       169.66902             27.5587               5.7905       
       170.51736             27.5315               5.7635       
       171.36995             27.5049               5.7374       
        172.2268             27.4788               5.7121       
       173.08793             27.4533               5.6877       
       173.95337             27.4281               5.6639       
       174.82314             27.4035               5.6409       
       175.69726             27.3792               5.6186       
       176.57574             27.3553               5.5969       
       177.45862             27.3317               5.5759       
       178.34591             27.3085               5.5555       
       179.23764             27.2856               5.5357       
       180.13383             27.2629               5.5165       
        181.0345             27.2405               5.4978       
       181.93967             27.2183               5.4796       
       182.84937             27.1963               5.462        
       183.76362             27.1744               5.4449       
       184.68244             27.1527               5.4282       
       185.60585             27.1311               5.4121       
       186.53388             27.1097               5.3963       
       187.46655             27.0883               5.3811       
       188.40388             27.0669               5.3663       
        189.3459             27.0457               5.3519       
       190.29263             27.0244               5.3379       
       191.24409             27.0031               5.3244       
       192.20031             26.9818               5.3112       
       193.16131             26.9604               5.2985       
       194.12712              26.939               5.2861       
       195.09776             26.9174               5.2741       
       196.07325             26.8958               5.2626       
       197.05361              26.874               5.2513       
       198.03888              26.852               5.2405       
       199.02907             26.8299                5.23        
       200.02422             26.8075               5.2199       
       201.02434             26.7849               5.2101       
       202.02946              26.762               5.2007       
       203.03961             26.7388               5.1917       
       204.05481             26.7153               5.183        
       205.07508             26.6914               5.1746       
       206.10046             26.6671               5.1666       
       207.13096             26.6423               5.159        
       208.16661             26.6171               5.1517       
       209.20745             26.5913               5.1447       
       210.25348             26.5649               5.138        
       211.30475             26.5378               5.1318       
       212.36128             26.5101               5.1258       
       213.42308             26.4815               5.1202       
        214.4902             26.4521               5.1149       
       215.56265             26.4217               5.1099       
       216.64046             26.3901               5.1053       
       217.72366             26.3574               5.101        
       218.81228             26.3233               5.0971       
       219.90634             26.2876               5.0935       
       221.00588             26.2501               5.0902       
        222.1109             26.2106               5.0873       
       223.22146             26.1686               5.0847       
       224.33757             26.1238               5.0824       
       225.45925             26.0756               5.0804       
       226.58655             26.0231               5.0788       
       227.71948             25.9655               5.0776       
       228.85808              25.901               5.0766       
       230.00237             25.8274               5.076        
       231.15238             25.7407               5.0758       
       232.30814             25.6341               5.0759       
       233.46969             25.4922               5.0763       
       234.63703             25.2703               5.077        
       235.81022             24.6034               5.0781       
       235.85864              24.506               5.0781       
       236.14137             24.5005               6.1083       
       236.98927             25.1225               6.1123       
       238.17422             25.3599               6.1181       
       239.36509             25.4826               6.1242       
       240.56191             25.5617               6.1307       
       241.76472             25.6173               6.1375       
       242.97355             25.6579               6.1447       
       244.18841             25.6877               6.1523       
       245.40936             25.7091               6.1602       
        246.6364             25.7233               6.1684       
       247.86959             25.7307               6.177        
       249.10893             25.7309               6.186        
       250.35448             25.7223               6.1952       
       251.60625             25.7007               6.2049       
       252.86428             25.6532               6.2149       
        254.1286             25.4844               6.2252       
       254.23287             25.4345               6.226        
       254.56716             25.4375               6.559        
       255.39925             25.6329               6.567        
       256.67624             25.7306               6.5796       
       257.95962             25.7882               6.5925       
       259.24942             25.8307               6.6057       
       260.54567             25.8649               6.6193       
        261.8484              25.894               6.6332       
       263.15764             25.9195               6.6474       
       264.47343             25.9422               6.6619       
       265.79579             25.9628               6.6767       
       267.12477             25.9817               6.6919       
        268.4604             25.9992               6.7073       
        269.8027             26.0156               6.723        
       271.15171              26.031               6.739        
       272.50747             26.0455               6.7552       
       273.87001             26.0593               6.7718       
       275.23936             26.0725               6.7886       
       276.61556             26.0851               6.8057       
       277.99863             26.0972               6.8231       
       279.38863             26.1089               6.8408       
       280.78557             26.1202               6.8587       
        282.1895             26.1311               6.8769       
       283.60044             26.1417               6.8953       
       285.01845              26.152               6.9139       
       286.44354              26.162               6.9328       
       287.87576             26.1718               6.952        
       289.31514             26.1813               6.9714       
       290.76171             26.1906               6.9909       
       292.21552             26.1996               7.0108       
        293.6766             26.2084               7.0308       
       295.14498             26.2169               7.051        
       296.62071             26.2252               7.0715       
       298.10381             26.2333               7.0921       
       299.59433              26.241               7.1129       
        301.0923             26.2484               7.1339       
       302.59776             26.2555               7.1551       
       304.11075             26.2622               7.1764       
        305.6313             26.2685               7.1979       
       307.15946             26.2742               7.2195       
       308.69526             26.2793               7.2413       
       310.23873             26.2837               7.2633       
       311.78993             26.2873               7.2853       
       313.34888             26.2898               7.3075       
       314.91562              26.291               7.3298       
        316.4902             26.2907               7.3523       
       318.07265             26.2883               7.3748       
       319.66301             26.2832               7.3974       
       321.26133             26.2745               7.4201       
       322.86764             26.2606               7.4429       
       324.48197              26.239               7.4657       
       326.10438             26.2044               7.4886       
       327.73491             26.1438               7.5116       
       329.37358              26.004               7.5346       
       330.05637             25.8298               7.5441       
       330.74361             25.8376               8.0762       
       331.02045              25.939               8.0802       
       332.67555             26.1743               8.1044       
       334.33893             26.2855               8.1286       
       336.01062             26.3646               8.1528       
       337.69068              26.429               8.177        
       339.37913             26.4848               8.2013       
       341.07602             26.5351               8.2254       
        342.7814             26.5817               8.2496       
       344.49531             26.6255               8.2738       
       346.21779             26.6673               8.2979       
       347.94888             26.7075               8.3219       
       349.68862             26.7466               8.3459       
       351.43706             26.7847               8.3698       
       353.19425              26.822               8.3937       
       354.96022             26.8588               8.4174       
       356.73502             26.8951               8.4411       
        358.5187             26.9311               8.4647       
       360.31129             26.9667               8.4881       
       362.11285             27.0045               8.5115       
       363.92341             27.0398               8.5347       
       365.74303              27.075               8.5578       
       367.57174             27.1102               8.5807       
        369.4096             27.1453               8.6034       
       371.25665             27.1804               8.6259       
       373.11293             27.2155               8.6483       
        374.9785             27.2506               8.6704       
       376.85339             27.2858               8.6924       
       378.73766              27.321               8.7141       
       380.63135             27.3563               8.7356       
        382.5345             27.3916               8.7568       
       384.44718             27.4271               8.7779       
       386.36941             27.4626               8.7986       
       388.30126             27.4982               8.8192       
       390.24276              27.534               8.8394       
       392.19398             27.5698               8.8594       
       394.15495             27.6057               8.8791       
       396.12572             27.6417               8.8986       
       398.10635             27.6778               8.9176       
       400.09688             27.7141               8.9363       
       402.09737             27.7504               8.9548       
       404.10785             27.7868               8.9729       
       406.12839             27.8233               8.9907       
       408.15904             27.8599               9.0082       
       410.19983             27.8966               9.0254       
       412.25083             27.9334               9.0422       
       414.31208             27.9702               9.0587       
       416.38364             28.0071               9.0748       
       418.46556             28.0441               9.0906       
       420.55789             28.0811               9.1061       
       422.66068             28.1182               9.1211       
       424.77398             28.1554               9.1358       
       426.89785             28.1926               9.1501       
       429.03234             28.2298               9.1641       
        431.1775             28.2671               9.1777       
       433.33339             28.3044               9.1909       
       435.50006             28.3417               9.2037       
       437.67756              28.379               9.2161       
       439.86595             28.4163               9.2281       
       442.06528             28.4536               9.2397       
        444.2756             28.4909               9.2509       
       446.49698             28.5282               9.2617       
       448.72947             28.5654               9.2721       
       450.97311             28.6027               9.2821       
       453.22798             28.6398               9.2916       
       455.49412             28.6769               9.3008       
       457.77159              28.714               9.3095       
       460.06045             28.7509               9.3178       
       462.36075             28.7878               9.3257       
       464.67255             28.8246               9.3331       
       466.99592             28.8613               9.3401       
        469.3309             28.8979               9.3467       
       471.67755             28.9344               9.3529       
       474.03594             28.9708               9.3586       
       476.40612              29.007               9.3639       
       478.78815             29.0431               9.3688       
       481.18209              29.079               9.3732       
        483.588              29.1148               9.3772       
       486.00594             29.1504               9.3806       
       488.43597             29.1858               9.3835       
       490.87815             29.2211               9.3859       
       493.33254              29.256               9.3878       
        495.7992             29.2908               9.3892       
        498.2782             29.3253                9.39        
       500.76959             29.3595               9.3903       
       503.27344             29.3934               9.3901       
        505.7898              29.427               9.3895       
       508.31875             29.4602               9.3883       
       510.86035             29.4931               9.3866       
       513.41465             29.5257               9.3844       
       515.98172             29.5579               9.3818       
       518.56163             29.5897               9.3786       
       521.15444             29.6211               9.375        
       523.76021             29.6521               9.3709       
       526.37901             29.6827               9.3663       
       529.01091             29.7128               9.3612       
       531.65596             29.7424               9.3557       
       534.31424             29.7716               9.3498       
       536.98581             29.8003               9.3433       
       539.67074             29.8285               9.3365       
        542.3691             29.8561               9.3291       
       545.08094             29.8833               9.3214       
       547.80635             29.9099               9.3132       
       550.54538             29.9359               9.3046       
        553.2981             29.9613               9.2955       
        556.0646             29.9862               9.2861       
       558.84492             30.0105               9.2762       
       561.63914             30.0341               9.266        
       564.44734             30.0571               9.2553       
       567.26958             30.0795               9.2442       
       570.10592             30.1012               9.2328       
       572.95645             30.1222               9.221        
       575.82123             30.1426               9.2088       
       578.70034             30.1622               9.1962       
       581.59384             30.1812               9.1833       
       584.50181             30.1994                9.17        
       587.42432             30.2168               9.1563       
       590.36144             30.2335               9.1423       
       593.31325             30.2495               9.128        
       596.27982             30.2646               9.1134       
       599.26122             30.2789               9.0984       
       602.25752             30.2924               9.0831       
       605.26881             30.3051               9.0674       
       608.29515              30.317               9.0515       
       611.33663             30.3279               9.0353       
       614.39331              30.338               9.0187       
       617.46528             30.3472               9.0019       
        620.5526             30.3555               8.9848       
       623.65537             30.3628               8.9674       
       626.77364             30.3692               8.9498       
       629.90751             30.3746               8.9318       
       633.05705              30.379               8.9137       
       636.22234             30.3825               8.8952       
       639.40345             30.3849               8.8765       
       642.60046             30.3862               8.8576       
       645.81347             30.3865               8.8384       
       649.04253             30.3857               8.819        
       652.28775             30.3839               8.7994       
       655.54919             30.3808               8.7796       
       658.82693             30.3767               8.7595       
       662.12107             30.3714               8.7392       
       665.43167             30.3648               8.7188       
       668.75883             30.3571               8.6981       
       672.10262             30.3481               8.6772       
       675.46314             30.3379               8.6562       
       678.84045             30.3264               8.6349       
       682.23466             30.3135               8.6135       
       685.64583             30.2993               8.5919       
       689.07406             30.2838               8.5702       
       692.51943             30.2668               8.5483       
       695.98202             30.2484               8.5262       
       699.46194             30.2285               8.504        
       702.95924             30.2071               8.4816       
       706.47404             30.1841               8.4591       
       710.00641             30.1621               8.4364       
       713.55644              30.136               8.4136       
       717.12423             30.1082               8.3907       
       720.70985             30.0788               8.3676       
        724.3134             30.0476               8.3444       
       727.93496             30.0146               8.3211       
       731.57464             29.9798               8.2977       
       735.23251             29.9431               8.2742       
       738.90867             29.9045               8.2506       
       742.60322             29.8639               8.2268       
       746.31623             29.8213               8.203        
       750.04781             29.7766               8.1791       
       753.79805             29.7297               8.1552       
       757.56704             29.6806               8.1311       
       761.35488             29.6292               8.107        
       765.16165             29.5776               8.0827       
       768.98746             29.5214               8.0585       
        772.8324             29.4627               8.0341       
       776.69656             29.4014               8.0097       
       780.58004             29.3375               7.9853       
       784.48294             29.2707               7.9607       
       788.40536              29.201               7.9362       
       792.34738             29.1284               7.9115       
       796.30912             29.0527               7.8869       
       800.29067             28.9737               7.8622       
       804.29212             28.8915               7.8374       
       808.31358             28.8057               7.8126       
       812.35515             28.7164               7.7878       
       816.41693             28.6233               7.763        
       820.49901             28.5262               7.7381       
        824.6015             28.4251               7.7132       
       828.72451             28.3197               7.6883       
       832.86813             28.2099               7.6634       
       837.03248             28.0953               7.6384       
       841.21764             27.9759               7.6135       
       845.42373             27.8513               7.5885       
       849.65084             27.7212               7.5635       
        853.8991             27.5855               7.5386       
       858.16859             27.4438               7.5136       
       862.45944             27.2957               7.4886       
       866.77173              27.141               7.4636       
       871.10559             26.9791               7.4386       
       875.46112             26.8097               7.4137       
       879.83843             26.6323               7.3887       
       884.23762             26.4464               7.3637       
       888.65881             26.2514               7.3388       
        893.1021             26.0467               7.3139       
       897.56761             25.8315               7.289        
       902.05545             25.6051               7.2641       
       906.56573             25.3667               7.2392       
       911.09856             25.1153               7.2144       
       915.65405             24.8497               7.1895       
       920.23232             24.5687               7.1647       
       924.83348             24.2709                7.14        
       929.45765             23.9548               7.1152       
       934.10494             23.6184               7.0905       
       938.77546             23.2597               7.0658       
       943.46934             22.8761               7.0412       
       948.18668             22.4647               7.0165       
       952.92762              22.022               6.992        
       957.69226             21.5438               6.9674       
       962.48072             21.0251               6.9429       
       967.29312             20.4596               6.9184       
       972.12959             19.8395               6.894        
       976.99023             19.1548               6.8696       
       981.87519             18.3927               6.8453       
       986.78456             17.5357               6.821        
       991.71848             16.5599               6.7968       
       996.67708             15.4309               6.7726       
       1001.6605             14.1039               6.7441       
       1006.6688             12.4974               6.7071       
       1011.7021              10.435               6.6703       
       1016.7606             7.56515               6.6338       
       1021.8444             2.77945               6.5967       
       1026.7933             -22.1483              6.5608       
       1026.9536             -26.8792              26.53        
       1027.0069             -22.4988              26.528       
       1032.0884             1.58433               26.326       
       1037.2489             4.98823               26.123       
       1042.4351             5.96659               25.922       
       1047.6473             4.51624               25.723       
       1051.3391             -7.48748              25.583       
       1051.6608             -7.60111              38.691       
       1052.8855             1.77888               38.62        
       1058.1499             9.77361               38.318       
       1063.4407             13.4392               38.017       
       1068.7579             16.0406               37.719       
       1074.1017             18.1099               37.424       
       1079.4722              19.847               37.131       
       1084.8695              21.352               36.84        
       1090.2939             22.6832               36.551       
       1095.7454             23.8785               36.265       
       1101.2241             24.9635               35.982       
       1106.7302              25.957                35.7        
       1112.2639              26.873               35.421       
       1117.8252             27.7223               35.144       
       1123.4143             28.5133               34.869       
       1129.0314              29.253               34.596       
       1134.6765             29.9468               34.326       
       1140.3499             30.5995               34.058       
       1146.0517              31.215               33.792       
       1151.7819             31.7965               33.528       
       1157.5408             32.3468               33.266       
       1163.3285             32.8684               33.007       
       1169.1452             33.3633               32.749       
       1174.9909             33.8334               32.493       
       1180.8659             34.2802               32.24        
       1186.7702             34.7051               31.989       
        1192.704             35.1092               31.739       
       1198.6676             35.4938               31.492       
       1204.6609             35.8596               31.246       
       1210.6842             36.2074               31.003       
       1216.7376             36.5379               30.761       
       1222.8213             36.8517               30.522       
       1228.9354             37.1491               30.284       
       1235.0801             37.4307               30.048       
       1241.2555             37.6965               29.815       
       1247.4618             37.9467               29.583       
       1253.6991             38.1812               29.353       
       1259.9676             38.4001               29.124       
       1266.2674             38.6028               28.898       
       1272.5988             38.7889               28.673       
       1278.9618             38.9576               28.451       
       1285.3566             39.1078               28.23        
       1291.7833             39.2379               28.01        
       1298.2423             39.3457               27.793       
       1304.7335              39.428               27.577       
       1311.2571             39.4803               27.363       
       1317.8134             39.4957               27.151       
       1324.4025             39.4633               26.94        
       1331.0245             39.3642               26.731       
       1337.6796             39.1625               26.524       
        1344.368             38.7743               26.321       
       1351.0899             37.9059               26.119       
       1355.9325              35.539               25.976       
       1357.8453             35.4989               30.344       
       1357.8674             35.5324               30.343       
       1364.6345             38.6761               30.096       
       1371.4577             39.7544               29.851       
        1378.315             40.4681               29.608       
       1385.2066             41.0163               29.367       
       1392.1326             41.4657               29.129       
       1399.0933             41.8464               28.892       
       1406.0887             42.1743               28.658       
       1413.1192             42.4576               28.425       
       1420.1848               42.7                28.195       
       1427.2857             42.9021               27.977       
       1434.4221             43.0731               27.771       
       1441.5942             43.2089               27.568       
       1448.8022             43.2972               27.369       
       1456.0462             43.3111               27.171       
       1463.3265             43.1658               26.977       
       1470.3391             42.1883               26.792       
       1470.6431             41.9985               26.784       
       1472.4609             42.2231               28.592       
       1477.9963             43.4706               28.433       
       1485.3863             44.1218               28.225       
       1492.8132              44.568               28.019       
       1500.2773             44.9287               27.815       
       1507.7787             45.2394               27.614       
       1515.3176             45.5159               27.416       
       1522.8942             45.7663               27.219       
       1530.5086             45.9953               27.025       
       1538.1612             46.2055               26.834       
        1545.852              46.398               26.646       
       1553.5812             46.5781               26.469       
       1561.3491              46.748               26.294       
       1569.1559             46.9076               26.121       
       1577.0017             47.0567               25.951       
       1584.8867             47.1947               25.783       
       1592.8111             47.3209               25.617       
       1600.7752             47.4334               25.453       
        1608.779             47.5295               25.291       
       1616.8229             47.6037               25.131       
        1624.907             47.6449               24.974       
       1633.0316              47.625               24.818       
       1641.1967             47.4301               24.663       
       1644.2772             47.1621               24.606       
       1648.7228             47.2348               25.699       
       1649.4027             47.3473               25.686       
       1657.6497             47.9992               25.531       
        1665.938             48.3513               25.378       
       1674.2677             48.6254               25.226       
        1682.639             48.8617               25.076       
       1691.0522             49.0749               24.927       
       1699.5075             49.2722               24.78        
        1708.005             49.4578               24.634       
        1716.545             49.6341               24.49        
       1725.1278             49.8028               24.347       
       1733.7534             49.9652               24.205       
       1742.4222              50.123               24.066       
       1751.1343             50.2769               23.928       
       1759.8899             50.4276               23.791       
       1768.6894             50.5752               23.651       
       1777.5328              50.718               23.508       
       1786.4205             50.8566               23.367       
       1795.3526             50.9915               23.227       
       1804.3294              51.123               23.087       
        1813.351             51.2513               22.949       
       1822.4178             51.3767               22.811       
       1831.5299             51.4995               22.675       
       1840.6875             51.6197               22.539       
       1849.8909             51.7377               22.404       
       1859.1404             51.8534               22.27        
       1868.4361             51.9672               22.137       
       1877.7783             52.0791               22.005       
       1887.1672             52.1892               21.874       
        1896.603             52.2979               21.744       
        1906.086             52.4052               21.614       
       1915.6165             52.5112               21.484       
       1925.1945              52.615               21.352       
       1934.8205             52.7166               21.22        
       1944.4946             52.8161               21.09        
       1954.2171             52.9137               20.96        
       1963.9882             53.0095               20.83        
       1973.8081             53.1035               20.702       
       1983.6772              53.196               20.574       
       1993.5955             53.2868               20.447       
       2003.5635             53.3762               20.321       
       2013.5813             53.4641               20.195       
       2023.6492             53.5507               20.07        
       2033.7675              53.636               19.946       
       2043.9363             53.7201               19.822       
        2054.156             54.0324               19.699       
       2064.4268             54.1145               19.571       
       2074.7489             54.1948               19.443       
       2085.1227             54.2733               19.316       
       2095.5483             54.3502               19.189       
        2106.026             54.5801               19.062       
       2116.5562              54.654               18.933       
       2127.1389             54.7261               18.805       
       2137.7746             54.7965               18.678       
       2148.4635             54.8651               18.551       
       2159.2058             54.9318               18.424       
       2170.0018             54.9968               18.298       
       2180.8519              55.06                18.173       
       2191.7561             55.1217               18.049       
       2202.7149             55.1819               17.926       
       2213.7285             55.2405               17.803       
       2224.7971             55.2978               17.682       
       2235.9211             55.3536               17.561       
       2247.1007             55.4081               17.441       
       2258.3362             55.4613               17.322       
       2269.6279             55.5133               17.201       
        2280.976              55.564               17.081       
       2292.3809             55.6134               16.961       
       2303.8428             55.6614               16.843       
        2315.362             55.7083               16.725       
       2326.9388              55.754               16.608       
       2338.5735             55.7984               16.492       
       2350.2664             55.8418               16.377       
       2362.0177              55.884               16.262       
       2373.8278             55.9252               16.149       
        2385.697             55.9653               16.036       
       2397.6254             56.0044               15.925       
       2409.6136             56.0425               15.814       
       2421.6616             56.0797               15.704       
       2433.7699             56.1159               15.594       
       2445.9388             56.1512               15.486       
       2458.1685             56.1857               15.378       
       2470.4593             56.2192               15.272       
       2482.8116              56.252               15.166       
       2495.2257             56.2839               15.061       
       2507.7018             56.3151               14.957       
       2520.2403             56.3455               14.853       
       2532.8415             56.3751               14.751       
       2545.5057             56.4041               14.649       
       2558.2333             56.4324               14.548       
       2571.0244              56.46                14.448       
       2583.8796              56.487               14.348       
        2596.799             56.5133               14.25        
       2609.7829             56.5391               14.152       
       2622.8319             56.5643               14.055       
        2635.946              56.589               13.959       
       2649.1257             56.6132               13.864       
       2662.3714             56.6369               13.769       
       2675.6832             56.6601               13.675       
       2689.0617              56.683               13.582       
        2702.507             56.7054               13.49        
       2716.0195             56.8219               13.398       
       2729.5996             56.8437               13.305       
       2743.2476              56.865               13.213       
       2756.9638             56.8858               13.121       
       2770.7486             56.9061               13.031       
       2784.6024             56.9259               12.941       
       2798.5254             56.9453               12.852       
        2812.518             56.9644               12.763       
       2826.5806             56.9831               12.676       
       2840.7135             57.0015               12.589       
       2854.9171             57.0196               12.502       
       2869.1917             57.0375               12.417       
       2883.5376             57.0553               12.332       
       2897.9553              57.073               12.247       
       2912.4451             57.0906               12.164       
       2927.0073             57.1082               12.081       
       2941.6424              57.126               11.999       
       2956.3506             57.1955               11.916       
       2971.1323             57.2142               11.835       
        2985.988             57.2332               11.753       
       3000.9179             57.2688               11.672       
       3015.9225             57.3099               11.578       
       3031.0021             57.3283               11.485       
       3046.1571             57.3431               11.393       
       3061.3879             57.3556               11.302       
       3076.6949             57.3663               11.211       
       3092.0783             57.3755               11.121       
       3107.5387             57.3833               11.033       
       3123.0764              57.39                10.945       
       3138.6918             57.3956               10.857       
       3154.3853             57.4003               10.771       
       3170.1572              57.404               10.685       
        3186.008             57.4069                10.6        
        3201.938              57.409               10.516       
       3217.9477             57.4104               10.433       
       3234.0374             57.4111               10.35        
       3250.2076             57.4112               10.268       
       3266.4587             57.4106               10.187       
        3282.791             57.4093               10.106       
       3299.2049             57.4285               10.026       
       3315.7009             57.4263               9.9467       
       3332.2794             57.4234               9.8677       
       3348.9408              57.42                9.7894       
       3365.6856              57.416               9.7119       
        3382.514             57.4114               9.635        
       3399.4265             57.4063               9.5588       
       3416.4237             57.4007               9.4833       
       3433.5058             57.3946               9.4084       
       3450.6733              57.388               9.3343       
       3467.9267             57.3809               9.2607       
       3485.2663             57.3734               9.1879       
       3502.6927             57.3654               9.1157       
       3520.2061             57.3569               9.0441       
       3537.8072             57.3481               8.9731       
       3555.4962             57.3388               8.9028       
       3573.2737             57.3291               8.8331       
        3591.14              57.3189               8.764        
       3609.0957             57.3084               8.6955       
       3627.1412             57.2975               8.6277       
       3645.2769             57.2862               8.5604       
       3663.5033             57.2745               8.4937       
       3681.8208             57.2625               8.4276       
       3700.2299              57.25                8.3621       
       3718.7311             57.2373               8.2972       
       3737.3247             57.2241               8.2328       
       3756.0114             57.2106               8.169        
       3774.7914             57.1967               8.1057       
       3793.6654             57.1825               8.0431       
       3812.6337             57.1679               7.9809       
       3831.6969              57.153               7.9193       
       3850.8554             57.1378               7.8582       
       3870.1096             57.1222               7.7977       
       3889.4602             57.1063               7.7377       
       3908.9075             57.0901               7.6782       
        3928.452             57.0735               7.6193       
       3948.0943             57.0566               7.5608       
       3967.8347             57.0393               7.5029       
       3987.6739             57.0217               7.4454       
        4055.024             57.2709               7.2561       
        4334.821             56.9459               6.5544       
        4633.924             56.5589               5.9072       
        4953.664             56.0639               5.312        
        5295.467             55.4141               4.785        
        5660.855             54.4933               4.3185       
        6051.453             52.9075               3.8956       
        6330.114             50.2829               3.6294       
        6427.004              47.193               3.5428       
        6452.841             43.6091                3.52        
        6469.004             44.4402               10.534       
        6491.597             47.1568               10.459       
        6588.486             50.2049               10.145       
        6872.544             51.7067               9.3341       
        6915.365             51.5211               9.2306       
        6977.736             50.6636               9.0844       
        7005.787             48.9754               9.0205       
        7047.864             50.9205               12.435       
        7153.056             52.7796               12.089       
        7279.342             53.6031               11.696       
        7392.525              53.512               11.369       
        7420.472             52.7858               11.295       
        7465.039             53.8921               12.942       
        7576.458             55.1658               12.65        
        7902.609             56.8936               11.871       
        8447.89              58.4739               10.736       
        9030.794             59.5133               9.6674       
        9653.919              60.208               8.6411       
        10320.04             60.6562               7.7194       
        11032.12             60.9484               6.9021       
        11793.34             61.1371               6.1767       
        12607.08             61.2555               5.5326       
        13476.97             61.3937               4.9456       
        14406.88              61.452               4.4134       
        15400.95             61.4702               3.929        
        16463.62             61.4233               3.4954       
        17599.61             61.3558               3.1123       
        18813.98             61.2751               2.7736       
        20112.15             61.1858               2.474        
        21499.88             61.0911               2.2088       
        22983.38             60.9926               1.9735       
        24569.23             60.8916               1.7648       
        26264.5              60.7901               1.5796       
        28076.76             60.6889               1.4043       
        30014.05             60.5693               1.2431       
        32085.02             60.4331                1.1         
        34298.89             60.2729              0.96981       
        36665.51             60.0727              0.85514       
        39195.43             59.7978               0.7544       
        41899.92              59.335              0.66606       
        44280.32             58.2962              0.60115       
        44791.01             57.5906              0.58853       
        44958.08              57.111              0.58449       
        45138.81             55.6908              0.58017       
        45409.92             57.1266                3.37        
        46087.68             58.4243               3.2928       
        47881.59             59.4838               3.1007       
        51185.42             60.2477               2.7819       
        54717.21             60.6492               2.4927       
        58492.7              60.9005               2.2324       
        62528.7              61.0674               1.995        
        66843.18             61.1788               1.7825       
        71455.36             61.2539               1.5924       
        76385.78             61.3038               1.4225       
        81656.4              61.3369               1.2691       
        87290.69             61.3547               1.1288       
        93313.74             61.3914               1.0024       
        99752.39             61.3874              0.88835       
        106635.3              61.377              0.78738       
        113993.1             61.3625              0.69796       
        121858.7             61.3452              0.61874       
        130266.9             61.3264              0.54857       
        139255.3             61.3067              0.48639       
        148864.0             61.2867              0.43129       
        159135.6             61.2669              0.38247       
        170115.9             61.2475               0.3392       
        181853.9             61.2287              0.30084       
        194401.8             61.2105              0.26684       
        207815.6             61.1934              0.23733       
        222154.8             61.1775              0.21117       
        237483.5             61.1627               0.1879       
        253869.9             61.1489              0.16721       
        271386.9             61.1362               0.1488       
        290112.6             61.1244              0.13243       
        310130.4             61.1135              0.11786       
        331529.4             61.1035              0.10491       
        354404.9             61.0942              0.09338       
        378858.8             61.0857              0.083124      
        405000.1             61.0779              0.073998      
        432945.1             61.0707              0.065877      
