# Po
# Form Factors from Chantler Tables
# DOI: https://dx.doi.org/10.18434/T4HS32
# automatically retrived 2019-02-28 using URL https://physics.nist.gov/cgi-bin/ffast/ffast.pl

# For f_rel the second term, which is 3/5th of the Cromer-Liberman value, is used as suggested by Chantler.
# Real and imaginary part of the formfactors are: f'(E)=f1(E)+f_rel+f_NT and f''(E)=f2(E)
# see also original publication:  https://doi.org/10.1063/1.555974

# Z = 84
# f_rel = -1.1838 e/atom  (Relativistic correction estimate)
# f_NT = -0.01852 e/atom (Nuclear Thomson correction)


#        E (eV)            f1 (e/atom)          f2 (e/atom)     
        5.286876            -0.937416               0.0         
        5.367797             -2.41276               0.0         
        5.389376             -4.15553               0.0         
        5.421745             -2.35734              3.4161       
        5.502667            -0.804519              3.3425       
        7.408549            -0.402942              2.3271       
        7.521945             -1.99692              2.2951       
        7.552184             -3.91935              2.2868       
        7.597543             -1.93282              6.0662       
        7.710939            -0.178513              6.0099       
         10.69               4.34264               4.8462       
        11.42761             4.66024               4.5909       
        12.21612             4.90165               4.3239       
        13.05903             5.06722               4.0467       
        13.9601              5.15153               3.7622       
        14.92335             5.13926               3.474        
        15.95306              4.9729               3.1862       
        16.44213             4.75222               3.0571       
        16.69379             4.40369               2.9927       
        16.7609              3.99143               2.9757       
        16.86157             4.42715               3.7563       
        17.05382             4.74215               3.6743       
        17.11323             4.79144               3.6495       
        18.23053             5.03153               3.2248       
        19.48844             4.88825               2.8269       
        20.83314             4.55514               2.4755       
        22.27063             4.05987               2.1655       
        23.8073              3.39001               1.8925       
        25.45001             2.50807               1.6524       
        27.20606             1.33278               1.4416       
        29.08327            -0.308155              1.2569       
         30.772              -2.46486              1.119        
        31.09002             -3.08405              1.0956       
         31.243              -3.49185              1.0846       
        31.3686              -4.11851              1.0757       
         31.557              -4.04359              1.935        
         32.028              -4.46733              2.1199       
        33.23523             -6.27486              2.8516       
        35.52846             -10.3112              5.8749       
        37.97993             -13.7002              11.67        
        40.60054             -14.6203              19.832       
        43.40198             -11.7266              28.708       
        46.39671             -5.05348              36.047       
        49.59809             4.00012               40.152       
        53.02035             13.4722               40.538       
        56.67876             21.7164               37.827       
        60.58959             27.8497               33.19        
        64.77028             31.7236               27.795       
        69.23942             33.6554               22.503       
        74.01695             34.1429               17.81        
        79.12411              33.67                13.907       
        84.58368             32.6109               10.798       
        90.41995             31.1832               8.3912       
        96.34786             29.3011               6.6374       
        96.65893              29.152               6.5603       
        97.82257             28.2875               6.2831       
        98.21583             27.3356               6.1932       
        98.80571             28.1544               7.7889       
        100.2804             28.6859               7.4102       
        103.3284             28.6682               6.7105       
        110.4581             27.8604               5.4257       
        118.0797             26.7265               4.4669       
        123.1813             25.7564               3.9909       
        125.0667             25.0497               3.8405       
        125.5695             24.4003               3.8024       
        126.2272             24.8901               4.924        
        126.3237             24.9441               4.9147       
        128.2091              25.282               4.7404       
        134.9368             25.0633               4.2126       
        144.2475             24.3241               3.6646       
        154.2005             23.3895               3.237        
        164.8404             22.2058               2.9046       
        165.9746             22.0528               2.875        
        167.4882              21.824               2.8371       
        168.515              21.6308               2.8123       
        169.1924             21.4179               2.7963       
        170.2086             21.3609               3.0056       
        170.7354             21.2674               3.0006       
        171.8369             21.2395               3.1272       
        172.749              21.1695               3.1215       
        174.4671             20.9684               3.1137       
        175.1685             20.8169               3.1117       
        176.2144             20.7907               3.2793       
        176.2205             20.7905               3.2793       
        178.8507             20.5881               3.3075       
        188.3732             19.6124               3.5269       
        201.3709             18.2002               4.1359       
        215.2655             16.7447               5.163        
        230.1188             15.3646               6.6594       
        245.997              14.2028               8.6349       
        262.9708             13.4078               11.044       
        281.1158              13.109               13.786       
        300.5128             13.3937               16.714       
        321.2482             14.2949               19.659       
        343.4143             15.7831               22.449       
        367.1099             17.7728               24.932       
        392.4405             20.1271               26.992       
        419.5189             22.6628               28.551       
        448.4657             25.0738               29.576       
        463.932              25.9443               29.893       
        471.033              25.8165               29.991       
        472.9266             25.1573               30.013       
        475.767              26.1423               31.612       
        479.4098              26.855               31.677       
        482.868              27.3126               31.733       
        490.196              28.0349               31.835       
        497.699               28.394               31.915       
        499.6998             28.0886               31.933       
         500.0               29.8543               31.936       
       500.56912             30.0971               32.917       
         502.5               30.8473               32.943       
        505.0125             31.3145               32.975       
       507.53756             31.6828               33.005       
       510.07525             32.0415               33.033       
       512.62563             32.3479               33.059       
       515.18875             32.6413               33.083       
        517.7647             32.9232               33.106       
       520.35352             33.1976               33.126       
       522.95529             33.4661               33.145       
       525.57007             33.7299               33.162       
       528.19792             34.0177               33.176       
       530.83891              34.274               33.189       
        533.4931             34.5272               33.199       
       536.16057             34.7775               33.207       
       538.84137             35.0253               33.213       
       541.53558             35.2706               33.216       
       544.24325             35.5138               33.218       
       546.96447              35.755               33.218       
       549.69929             35.9943               33.216       
       552.44779             36.2318               33.212       
       555.21003             36.4677               33.206       
       557.98608             36.7019               33.197       
       560.77601             36.9344               33.187       
       563.57989             37.1652               33.174       
       566.39779             37.3942               33.159       
       569.22978             37.6216               33.142       
       572.07593             37.8472               33.123       
        574.9363              38.071               33.101       
       577.81099             38.2931               33.078       
       580.70004             38.5135               33.053       
       583.60354              38.732               33.026       
       586.52156             38.9487               32.997       
       589.45417             39.1636               32.966       
       592.40144             39.3765               32.934       
       595.36345             39.5876                32.9        
       598.34026             39.7968               32.865       
       601.33196              40.004               32.827       
       604.33862             40.2092               32.788       
       607.36032             40.4124               32.747       
       610.39712             40.6135               32.705       
        613.4491             40.8124               32.661       
       616.51635             41.0091               32.615       
       619.59893             41.2036               32.567       
       622.69693             41.3956               32.518       
       625.81041             41.5853               32.468       
       628.93946             41.7724               32.416       
       632.08416             41.9568               32.362       
       635.24458             42.1385               32.307       
        638.4208             42.3174               32.25        
       641.61291             42.4931               32.193       
       644.82097             42.6657               32.133       
       648.04508             42.8349               32.073       
        651.2853             43.0003               32.011       
       654.54173             43.1619               31.948       
       657.81444             43.3191               31.884       
       661.10351             43.4716               31.818       
       664.40903             43.6189               31.752       
       667.73107             43.7603               31.684       
       671.06973             43.8949               31.615       
       674.42508             44.0216               31.545       
        677.7972             44.1389               31.474       
       681.18619             44.2447               31.402       
       684.59212             44.3358               31.329       
       688.01508             44.4072               31.255       
       691.45515             44.4505               31.179       
       694.91243             44.4498               31.103       
       698.38699             44.3684               31.026       
       701.87893             44.0818               30.947       
       704.06938              43.443               30.898       
       705.38832             42.9682               32.812       
       705.93058             43.5357                32.8        
       708.91526             44.5722               32.734       
       712.45984             45.1446               32.655       
       716.02214             45.5585               32.575       
       719.60225             45.9035               32.494       
       723.20026             46.2095               32.413       
       726.81626             46.4898               32.331       
       730.45034              46.752               32.248       
        734.1026             47.0003               32.164       
       737.77311             47.2377               32.08        
       741.46197             47.4661               31.995       
       745.16928             47.6871               31.91        
       748.89513             47.9015               31.825       
       752.63961             48.1103               31.738       
        756.4028             48.3141               31.652       
       760.18482             48.5134               31.565       
       763.98574             48.7087               31.478       
       767.80567             48.9002               31.391       
        771.6447             49.0883               31.303       
       775.50292             49.2733               31.216       
       779.38044             49.4554               31.128       
       783.27734             49.6348               31.04        
       787.19373             49.8118               30.952       
       791.12969             49.9864               30.863       
       795.08534             50.1589               30.775       
       799.06077             50.3294               30.687       
       803.05607             50.4968               30.591       
       807.07135             50.6603               30.492       
       811.10671              50.82                30.393       
       815.16224             50.9759               30.294       
       819.23806             51.1277               30.195       
       823.33425             51.2751               30.095       
       827.45092             51.4174               29.996       
       831.58817             51.5535               29.896       
       835.74611             51.6817               29.797       
       839.92484             51.7978               29.697       
       844.12447              51.892               29.598       
       848.34509             51.9223               29.494       
       849.73202             51.8761               29.459       
        852.268              51.9655               29.803       
       852.58682             52.0058               29.795       
       856.84975             52.3234               29.691       
        861.134              52.5415               29.587       
       865.43967             52.7324               29.483       
       869.76687             52.9096               29.379       
        874.1157             53.0779               29.275       
       878.48628             53.2398               29.171       
       882.87871             53.3966               29.067       
        887.2931             53.5493               28.963       
       891.72957             53.6983               28.859       
       896.18822             53.8441               28.755       
       900.66916              53.987               28.651       
        905.1725             54.1272               28.548       
       909.69837             54.2648               28.445       
       914.24686               54.4                28.342       
       918.81809             54.5328               28.24        
       923.41218             54.6635               28.137       
       928.02924             54.7919               28.035       
       932.66939             54.9181               27.933       
       937.33274             55.0421               27.832       
        942.0194             55.1638               27.731       
        946.7295             55.2832               27.63        
       951.46315               55.4                27.53        
       956.22046             55.5139               27.43        
       961.00156             55.6246               27.331       
       965.80657             55.7312               27.232       
        970.6356             55.8328               27.133       
       975.48878             55.9271               27.035       
       980.36623             56.0104               26.937       
       985.26806             56.0733               26.84        
        990.1944             56.0866               26.744       
       993.95634             55.9468               26.671       
       995.14537             55.5822               26.648       
       996.64365             56.0239               27.198       
       1000.1211             56.3594               27.128       
       1005.1217             56.6399               26.963       
       1010.1473             56.8589               26.799       
        1015.198              57.05                26.636       
        1020.274             57.2236               26.475       
       1025.3754             57.3845               26.315       
       1030.5023             57.5356               26.156       
       1035.6548             57.6785               25.999       
       1040.8331             57.8144               25.843       
       1046.0372             57.9441               25.688       
       1051.2674             58.0682               25.534       
       1056.5238             58.1873               25.382       
       1061.8064             58.3018               25.231       
       1067.1154             58.4121               25.081       
        1072.451             58.5183               24.932       
       1077.8132             58.6209               24.785       
       1083.2023             58.7199               24.639       
       1088.6183             58.8156               24.494       
       1094.0614             58.9081               24.35        
       1099.5317             58.9976               24.207       
       1105.0294             59.0844               24.066       
       1110.5545             59.1686               23.926       
       1116.1073             59.2503               23.788       
       1121.6878             59.3297               23.65        
       1127.2963             59.4067               23.514       
       1132.9328             59.4816               23.378       
       1138.5974             59.5544               23.244       
       1144.2904             59.6251               23.111       
       1150.0119              59.694               22.979       
       1155.7619             59.7609               22.848       
       1161.5407             59.8261               22.718       
       1167.3484             59.8896               22.589       
       1173.1852             59.9514               22.461       
       1179.0511             60.0117               22.335       
       1184.9464             60.0705               22.209       
       1190.8711             60.1279               22.084       
       1196.8254             60.1836               21.959       
       1202.8096             60.2376               21.834       
       1208.8236             60.2899               21.71        
       1214.8677             60.3407               21.587       
       1220.9421             60.3899               21.465       
       1227.0468             60.4376               21.344       
        1233.182             60.4838               21.224       
       1239.3479             60.5287               21.105       
       1245.5447             60.5722               20.987       
       1251.7724             60.6144               20.87        
       1258.0312             60.6554               20.754       
       1264.3214              60.695               20.638       
        1270.643             60.7334               20.524       
       1276.9962             60.7707               20.411       
       1283.3812             60.8067               20.298       
       1289.7981             60.8417               20.186       
       1296.2471             60.8755               20.075       
       1302.7283             60.9082               19.966       
        1309.242             60.9398               19.856       
       1315.7882             60.9704               19.748       
       1322.3671               61.0                19.641       
        1328.979             61.0285               19.534       
       1335.6239             61.0561               19.429       
        1342.302             61.0827               19.324       
       1349.0135             61.1084               19.22        
       1355.7586             61.1331               19.117       
       1362.5374             61.1569               19.014       
        1369.35              61.1798               18.913       
       1376.1968             61.2018               18.812       
       1383.0778              61.223               18.712       
       1389.9932             61.2433               18.613       
       1396.9431             61.2628               18.514       
       1403.9278             61.2814               18.416       
       1410.9475             61.2993               18.32        
       1418.0022             61.3164               18.223       
       1425.0922             61.3461               18.128       
       1432.2177              61.362               18.033       
       1439.3788             61.3772               17.939       
       1446.5757             61.3914               17.845       
       1453.8086             61.4047               17.751       
       1461.0776             61.4171               17.658       
        1468.383             61.4287               17.566       
       1475.7249             61.4394               17.474       
       1483.1035             61.4493               17.383       
        1490.519             61.4583               17.293       
       1497.9716             61.4666               17.203       
       1505.4615             61.4876               17.114       
       1512.9888             61.4944               17.026       
       1520.5537             61.5003               16.938       
       1528.1565             61.5055               16.851       
       1535.7973             61.5099               16.765       
       1543.4763             61.5135               16.68        
       1551.1937             61.5163               16.595       
       1558.9496             61.5184               16.51        
       1566.7444             61.5197               16.426       
       1574.5781             61.5202               16.343       
        1582.451              61.52                16.261       
       1590.3633              61.519               16.179       
       1598.3151             61.5173               16.098       
       1606.3066             61.5148               16.017       
       1614.3382             61.5116               15.937       
       1622.4099             61.5076               15.857       
       1630.5219             61.5028               15.778       
       1638.6745             61.4973                15.7        
       1646.8679             61.4911               15.622       
       1655.1022             61.4841               15.545       
       1663.3777             61.4764               15.469       
       1671.6946              61.468               15.392       
       1680.0531             61.4588               15.317       
       1688.4534             61.4488               15.241       
       1696.8956             61.4379               15.166       
       1705.3801             61.4261               15.092       
        1713.907             61.4135               15.018       
       1722.4766             61.4001               14.944       
       1731.0889             61.3857               14.871       
       1739.7444             61.3705               14.799       
       1748.4431             61.3544               14.727       
       1757.1853             61.3374               14.655       
       1765.9712             61.3196               14.584       
       1774.8011             61.3009               14.514       
       1783.6751             61.2812               14.444       
       1792.5935             61.2607               14.374       
       1801.5565             61.2393               14.305       
       1810.5642             61.2169               14.237       
       1819.6171             61.1936               14.169       
       1828.7151             61.1694               14.102       
       1837.8587             61.1442               14.035       
        1847.048             61.1181               13.968       
       1856.2833              61.091               13.902       
       1865.5647             61.0629               13.836       
       1874.8925             61.0339               13.77        
        1884.267             61.0038               13.705       
       1893.6883             60.9727               13.641       
       1903.1567             60.9402               13.568       
       1912.6725              60.906               13.495       
       1922.2359             60.8699               13.423       
       1931.8471             60.8321               13.351       
       1941.5063             60.7925               13.28        
       1951.2138             60.7511               13.209       
       1960.9699             60.7078               13.139       
       1970.7747             60.6627               13.07        
       1980.6286             60.6158               13.001       
       1990.5318             60.5669               12.932       
       2000.4844             60.5161               12.864       
       2010.4868             60.4632               12.79        
       2020.5393             60.4077               12.717       
        2030.642             60.3497               12.644       
       2040.7952             60.2891               12.572       
       2050.9992             60.2259                12.5        
       2061.2542             60.1601               12.429       
       2071.5604             60.0915               12.358       
       2081.9182              60.02                12.288       
       2092.3278             59.9458               12.219       
       2102.7895             59.8685               12.149       
       2113.3034             59.7882               12.081       
       2123.8699              59.708               12.013       
       2134.4893             59.6213               11.945       
       2145.1617             59.5313               11.878       
       2155.8875             59.4378               11.811       
        2166.667             59.3407               11.745       
       2177.5003             59.2399               11.679       
       2188.3878             59.1351               11.613       
       2199.3297             59.0262               11.549       
       2210.3264              58.913               11.484       
        2221.378             58.7954               11.42        
       2232.4849             58.6731               11.357       
       2243.6473             58.5458               11.294       
       2254.8656             58.4134               11.231       
       2266.1399             58.2755               11.169       
       2277.4706             58.1319               11.107       
       2288.8579             57.9821               11.046       
       2300.3022             57.8259               10.985       
       2311.8037             57.6628               10.925       
       2323.3628             57.4924               10.865       
       2334.9796             57.3142               10.805       
       2346.6545             57.1277               10.746       
       2358.3878             56.9322               10.687       
       2370.1797             56.7271               10.629       
       2382.0306             56.5116               10.571       
       2393.9407             56.2848               10.513       
       2405.9104             56.0459               10.456       
        2417.94              55.7936               10.399       
       2430.0297             55.5268               10.342       
       2442.1798              55.244               10.286       
       2454.3907             54.9436               10.23        
       2466.6627             54.6235               10.175       
        2478.996             54.2815               10.12        
        2491.391              53.915               10.066       
       2503.8479             53.5205               10.011       
       2516.3672             53.0941               9.9576       
        2528.949              52.631               9.9041       
       2541.5938             52.1249               9.8511       
       2554.3017             51.5679               9.7983       
       2567.0732             50.9498               9.746        
       2579.9086             50.2566               9.694        
       2592.8082             49.4687               9.6424       
       2605.7722             48.5579               9.5911       
       2618.8011              47.48                9.5401       
       2631.8951             46.1608               9.4895       
       2645.0545             44.4594               9.4393       
       2658.2798              42.05                9.3894       
       2671.5712             37.8063               9.3399       
       2682.2596             23.1295               9.3004       
       2683.7406             22.8458               26.036       
       2684.9291             27.9442               26.019       
       2698.3537             38.8204               25.821       
       2711.8455             41.8826               25.626       
       2725.4047             43.5247               25.431       
       2739.0317             44.4561               25.239       
       2752.7269             44.8609               25.048       
       2766.4905             44.7102               24.859       
        2780.323              43.656               24.671       
       2794.2246             39.0917               24.485       
       2797.1803             33.8657               24.445       
       2798.8199             33.7869               35.56        
       2808.1957             43.2845               35.368       
       2822.2367             47.0858               35.082       
       2836.3479              49.363               34.798       
       2850.5296              51.066               34.516       
       2864.7823              52.452               34.237       
       2879.1062             53.6311               33.96        
       2893.5017             54.6615               33.686       
       2907.9692              55.578               33.414       
       2922.5091             56.4036               33.144       
       2937.1216             57.1541               32.877       
       2951.8072             57.8411               32.612       
       2966.5662              58.473               32.349       
       2981.3991             59.0566               32.088       
       2996.3061             59.5993               31.83        
       3011.2876             60.0956               31.564       
        3026.344             60.5594               31.296       
       3041.4758             60.9913               31.032       
       3056.6831             61.3922               30.77        
       3071.9666             61.7636               30.511       
       3087.3264             62.1064               30.255       
        3102.763             62.4213               30.001       
       3118.2768             62.7082               29.75        
       3133.8682              62.967               29.502       
       3149.5376             63.1964               29.256       
       3165.2853             63.3946               29.012       
       3181.1117             63.5582               28.771       
       3197.0172             63.6822               28.53        
       3213.0023             63.7582               28.292       
       3229.0673             63.7722               28.057       
       3245.2127             63.6988               27.823       
       3261.4387             63.4853               27.592       
       3277.7459             62.9924               27.363       
       3294.1347             61.5485               27.136       
       3298.2348             60.4706               27.08        
        3305.565             60.5387               31.805       
       3310.6053             61.9636               31.72        
       3327.1584             63.8848               31.445       
       3343.7941             64.9232               31.172       
       3360.5131             65.6833               30.902       
       3377.3157             66.3003               30.635       
       3394.2023             66.8274               30.37        
       3411.1733              67.291               30.107       
       3428.2291             67.7061               29.846       
       3445.3703             68.0815               29.588       
       3462.5971             68.4221               29.332       
       3479.9101             68.7347               29.094       
       3497.3097              69.03                28.858       
       3514.7962             69.3072               28.623       
       3532.3702             69.5678               28.391       
       3550.0321             69.8129               28.162       
       3567.7822             70.0437               27.935       
       3585.6211             70.2611               27.712       
       3603.5492             70.4656               27.491       
        3621.567             70.6579               27.273       
       3639.6748             70.8382               27.056       
       3657.8732             71.0054               26.839       
       3676.1626             71.1589               26.623       
       3694.5434             71.2983               26.41        
       3713.0161             71.4225                26.2        
       3731.5812             71.5297               25.992       
       3750.2391             71.6169               25.786       
       3768.9903             71.6791               25.582       
       3787.8352              71.707               25.381       
       3806.7744             71.6811               25.182       
       3825.8083             71.5504               24.984       
       3844.9373             71.0694               24.789       
       3848.5501             70.8145               24.753       
       3859.6499             70.8842               26.427       
        3864.162             71.2611               26.376       
       3883.4828             72.0211               26.16        
       3902.9002             72.4465               25.946       
       3922.4147             72.7642               25.735       
       3942.0268             73.0245               25.526       
       3961.7369             73.2467               25.318       
       3981.5456             73.4401               25.113       
       4001.4533             73.6091               24.91        
       4021.4606             73.7554               24.708       
       4041.5679             73.8785               24.509       
       4061.7757             73.9776               24.321       
       4082.0846             74.0522               24.137       
        4102.495             74.0886               23.955       
       4123.0075             74.0483               23.775       
       4140.6035             73.8077               23.624       
       4143.6226             73.6888               23.598       
        4158.197             73.9217               24.52        
       4164.3407             74.1397               24.468       
       4185.1624             74.5674               24.293       
       4206.0882             74.8537               24.119       
       4227.1186             75.0878               23.948       
       4248.2542             75.2936               23.779       
       4269.4955             75.4812               23.612       
        4290.843             75.6559               23.446       
       4312.2972             75.8197               23.277       
       4333.8587             75.9739               23.108       
        4355.528             76.1202               22.942       
       4377.3056             76.2596               22.776       
       4399.1921              76.393               22.613       
       4421.1881              76.521               22.451       
        4443.294             76.6441               22.29        
       4465.5105             76.7629               22.131       
       4487.8381             76.8777               21.974       
       4510.2772             76.9887               21.818       
       4532.8286             77.0963               21.663       
       4555.4928             77.2007               21.51        
       4578.2702             77.3021               21.358       
       4601.1616             77.4007               21.207       
       4624.1674             77.4965               21.058       
       4647.2882             77.5899               20.91        
       4670.5247             77.6809               20.763       
       4693.8773             77.7696               20.617       
       4717.3467             77.8561               20.473       
       4740.9334             77.9406               20.33        
       4764.6381             78.0232               20.188       
       4788.4613             78.1039               20.047       
       4812.4036             78.1828               19.907       
       4836.4656             78.2601               19.769       
       4860.6479             78.3358               19.631       
       4884.9512              78.41                19.495       
       4909.3759             78.4828               19.36        
       4933.9228             78.5544               19.226       
       4958.5924             78.6248               19.093       
       4983.3854             78.6941               18.961       
       5008.3023             78.7627               18.83        
       5033.3438             78.8297               18.696       
       5058.5105             78.8948               18.563       
       5083.8031             78.9582               18.431       
       5109.2221              79.02                 18.3        
       5134.7682             79.0803               18.17        
       5160.4421             79.1391               18.04        
       5186.2443             79.1965               17.912       
       5212.1755             79.2526               17.785       
       5238.2364             79.3075               17.658       
       5264.4276             79.3613               17.533       
       5290.7497             79.4139               17.408       
       5317.2034             79.4654               17.285       
       5343.7895             79.5159               17.162       
       5370.5084              79.736               17.039       
       5397.3609             79.7848               16.912       
       5424.3477             79.8319               16.786       
       5451.4695             79.8773               16.66        
       5478.7268             79.9212               16.536       
       5506.1205             79.9637               16.412       
       5533.6511             80.0047               16.29        
       5561.3193             80.0445               16.168       
       5589.1259             80.0831               16.047       
       5617.0716             80.2379               15.925       
       5645.1569             80.2739               15.803       
       5673.3827             80.3084               15.682       
       5701.7496             80.3415               15.562       
       5730.2584             80.3733               15.443       
       5758.9096             80.4038               15.325       
       5787.7042             80.4331               15.208       
       5816.6427             80.4612               15.092       
       5845.7259             80.4882               14.977       
       5874.9546             80.5141               14.863       
       5904.3293             80.5389               14.75        
        5933.851             80.5627               14.638       
       5963.5202             80.5855               14.527       
       5993.3378             80.6074               14.416       
       6023.3045             80.6284               14.307       
        6053.421             80.6484               14.199       
       6083.6882             80.6676               14.091       
       6114.1066              80.686               13.985       
       6144.6771             80.7035               13.879       
       6175.4005             80.7203               13.775       
       6206.2775             80.7363               13.671       
       6237.3089             80.7516               13.568       
       6268.4954             80.7661               13.466       
       6299.8379              80.78                13.365       
       6331.3371             80.7932               13.265       
       6362.9938             80.8057               13.166       
       6394.8088             80.8176               13.067       
       6426.7828             80.8289               12.97        
       6458.9167             80.8396               12.873       
       6491.2113             80.8498               12.777       
       6523.6674             80.8594               12.682       
       6556.2857             80.8685               12.588       
       6589.0671             80.8771               12.495       
       6622.0125             80.9737               12.401       
       6655.1225             80.9816               12.307       
       6688.3981             80.9888               12.214       
       6721.8401             80.9953               12.122       
       6755.4493             81.0011               12.031       
       6789.2266             81.0064               11.94        
       6823.1727             81.0111               11.851       
       6857.2886             81.0152               11.762       
        6891.575             81.0188               11.674       
       6926.0329             81.0218               11.586       
       6960.6631             81.0243               11.499       
       6995.4664             81.0264               11.414       
       7030.4437              81.028               11.328       
       7065.5959             81.0291               11.244       
       7100.9239             81.0297               11.16        
       7136.4285             81.0299               11.078       
       7172.1107             81.0297               10.995       
       7207.9712             81.0291               10.914       
       7244.0111             81.0281               10.833       
       7280.2311             81.0267               10.753       
       7316.6323              81.025               10.674       
       7353.2155             81.0229               10.595       
       7389.9815             81.0204               10.517       
       7426.9314             81.0176               10.44        
       7464.0661             81.0145               10.364       
       7501.3864              81.011               10.288       
       7538.8934             81.0073               10.212       
       7576.5878             81.0032               10.138       
       7614.4708             80.9989               10.064       
       7652.5431             80.9943               9.9907       
       7690.8058             80.9895               9.9181       
       7729.2599             81.0253               9.8456       
       7767.9062             81.0202               9.7733       
       7806.7457             81.0147               9.7016       
       7845.7794             81.0089               9.6305       
       7885.0083             81.0028                9.56        
       7924.4334             80.9964               9.4902       
       7964.0555             80.9898               9.4209       
       8003.8758             80.9828               9.3522       
       8043.8952             80.9757               9.2841       
       8084.1147             80.9683               9.2166       
       8124.5352             80.9606               9.1496       
       8165.1579             80.9528               9.0833       
       8205.9837             80.9447               9.0175       
       8247.0136             80.9365               8.9522       
       8288.2487             80.9281               8.8875       
       8329.6899              80.936               8.8231       
       8371.3384             80.9275               8.7591       
       8413.1951             80.9187               8.6956       
        8455.261             80.9099               8.6327       
       8497.5373              80.901               8.5704       
        8540.025              80.892               8.5085       
        9030.794             81.0095               7.8208       
        9653.919             80.7345               6.9929       
        10320.04             80.3512               6.261        
        11032.12             79.8518               5.6151       
        11793.34             79.1788               5.0408       
        12607.08             78.1391               4.5179       
        13476.97             75.6777               4.0535       
        13537.52             75.3005               4.0242       
        13744.73             72.6547               3.9267       
        13799.99             69.5496               3.9014       
        13882.87             72.6427               9.9368       
        14090.08             75.3795               9.6932       
        14406.88             76.8213               9.3377       
        15400.95             78.0433               8.321        
        15919.41              77.574               7.8563       
        16163.08             76.3557               7.6515       
        16228.06             74.8051               7.5982       
        16325.52             76.3871               10.594       
        16463.62              77.382               10.446       
        16569.19              77.743               10.336       
        16600.51             77.8177               10.303       
        16854.6              77.8673               10.045       
        16922.36             77.2212               9.9772       
        17024.0              78.2161               11.44        
        17278.09             79.3527               11.183       
        17599.61             80.1319               10.872       
        18813.98             81.7458               9.793        
        20112.15             82.6546               8.8107       
        21499.88             83.2446               7.9269       
        22983.38             83.6422               7.1288       
        24569.23             83.9129               6.4136       
        26264.5              84.1068               5.7737       
        28076.76             84.3076               5.165        
        30014.05             84.3615               4.6062       
        32085.02             84.3709               4.112        
        34298.89             84.4133               3.6662       
        36665.51             84.3661               3.2619       
        39195.43             84.2986               2.9044       
        41899.92             84.2183               2.5881       
        44791.01             84.1295               2.308        
        47881.59             84.0346               2.0597       
        51185.42             83.9352               1.8395       
        54717.21             83.8314               1.6441       
        58492.7              83.7228               1.4705       
        62528.7              83.6071               1.314        
        66843.18             83.4787               1.1743       
        71455.36             83.3311                1.05        
        76385.78             83.1488              0.93655       
        81656.4               82.894              0.83262       
        87290.69             82.4362               0.7362       
        91242.9              81.6339              0.67872       
        92639.48             80.6048              0.66011       
        93011.9              79.3737              0.65528       
        93313.74             80.0216               3.0839       
        93570.53             80.6569               3.0708       
        94967.1              81.7789               3.0009       
        99752.39              82.839               2.7786       
        106635.3             83.4136               2.5008       
        113993.1             83.7293               2.2471       
        121858.7             83.9284               2.0183       
        130266.9             84.0613               1.8124       
        139255.3             84.1518               1.625        
        148864.0             84.2113               1.4564       
        159135.6             84.2495               1.3053       
        170115.9             84.2724               1.1699       
        181853.9             84.2843               1.0486       
        194401.8             84.2882              0.94004       
        207815.6             84.2862              0.84258       
        222154.8             84.2799              0.75532       
        237483.5             84.2706              0.67716       
        253869.9             84.2592              0.60716       
        271386.9             84.2465              0.54445       
        290112.6              84.233              0.48826       
        310130.4             84.2192              0.43791       
        331529.4             84.2053              0.39279       
        354404.9             84.1915              0.35235       
        378858.8             84.1781               0.3161       
        405000.1             84.1651              0.28361       
        432945.1             84.1527              0.25447       
