# Pr
# Form Factors from Chantler Tables
# DOI: https://dx.doi.org/10.18434/T4HS32
# automatically retrived 2019-02-28 using URL https://physics.nist.gov/cgi-bin/ffast/ffast.pl

# For f_rel the second term, which is 3/5th of the Cromer-Liberman value, is used as suggested by Chantler.
# Real and imaginary part of the formfactors are: f'(E)=f1(E)+f_rel+f_NT and f''(E)=f2(E)
# see also original publication:  https://doi.org/10.1063/1.555974

# Z = 59
# f_rel = -0.4914 e/atom  (Relativistic correction estimate)
# f_NT = -0.013552 e/atom (Nuclear Thomson correction)


#        E (eV)            f1 (e/atom)          f2 (e/atom)     
         10.69               17.2746              0.23728       
        11.42761             17.1786              0.26237       
        12.21612             17.0636              0.29076       
        13.05903             16.9241              0.32288       
        13.9601              16.7523              0.35918       
        14.92335              16.536              0.40006       
        15.95306             16.2553              0.44589       
        17.05382             15.8752               0.4971       
        18.23053             15.3259              0.55414       
        19.48844             14.4414              0.61742       
        20.83314             12.6571              0.68733       
         21.854              8.78438              0.74176       
        22.1885              3.65754              0.75981       
        22.27063             -1.5689              0.76426       
        22.2777              -2.66574             0.76464       
        22.4115              4.16438               13.314       
         22.746              10.2066               12.834       
        23.8073              15.7662               11.483       
        25.45001             19.0008               9.7813       
        27.20606             20.6242               8.2672       
        29.08327             21.4648                6.98        
        31.09002             21.8593               5.9361       
        33.23523              21.993               5.1215       
        35.52846              21.977               4.5077       
         36.652              21.9361               4.2806       
         37.213              21.9051               4.1821       
        37.3626              21.8881               4.1573       
         37.587              21.8891               4.1426       
        37.97993             21.8795               4.0837       
         38.148              21.8737               4.0597       
        40.60054             21.7708               3.7806       
        43.40198             21.6522               3.5873       
        46.39671             21.5466                3.48        
        49.59809             21.4645               3.4368       
        53.02035             21.3979               3.4456       
        56.67876             21.3576               3.4962       
        60.58959             21.3462               3.5799       
        64.77028             21.3678               3.6904       
        69.23942             21.4186               3.6967       
        74.01695             21.4093               3.6665       
        79.12411             21.3305               3.6299       
        84.58368             21.1444               3.5846       
        90.41995             20.7735               3.5296       
        96.65893             20.0352               3.4646       
        103.3284             18.3476               3.3896       
        110.4581             11.6068               3.3048       
        110.936              10.3019               3.299        
        112.634             -0.981412              3.2783       
        113.0868             -16.7885              3.2727       
        113.766              3.85738               35.265       
        115.464              21.0277               28.922       
        118.0797             28.6936               21.62        
        126.2272             31.4534               9.9813       
        134.9368             29.6178               6.1318       
        144.2475             28.2581               4.7184       
        154.2005             27.3603               4.0747       
        164.8404             26.7195               3.7343       
        176.2144              26.206               3.5421       
        188.3732              25.736               3.4409       
        201.3709             25.2247               3.4093       
        213.248              24.5328               3.4319       
        215.2655             24.2898               3.4399       
        216.512              24.0212               3.4454       
        217.3824             23.4988               3.4495       
        218.688              23.9617               4.4336       
        221.952              24.3073               4.4636       
        230.1188             24.4087               4.5497       
        231.574              24.3919               4.5665       
        235.1185              24.264               4.6095       
        236.0637             24.0994               4.6214       
        237.4815             24.2665               4.9652       
        241.026              24.4103               5.0167       
        245.997              24.4805               5.0924       
        262.9708             24.5523               5.3744       
        281.1158             24.5591               5.7025       
         298.41              24.4528               6.0245       
        300.5128             24.3988               6.0636       
        302.9775             24.2591               6.1093       
        304.1955             24.0036               6.1318       
        306.0225             24.2818               6.6829       
         310.59              24.5476                6.77        
        321.2482             24.8143               6.9693       
        343.4143             25.1989               7.3577       
        367.1099             25.5909               7.7181       
        392.4405             26.0096                8.03        
        419.5189             26.4465               8.2777       
        448.4657             26.8823               8.4482       
        479.4098             27.2919               8.5326       
        512.4891             27.6374               8.5245       
        547.8508             27.8793               8.434        
        585.6525             27.9771               8.2746       
        626.0625              27.883               8.0606       
        669.2609             27.5307               7.8062       
        715.4399             26.8172               7.5237       
        764.8052             25.5391               7.2236       
        817.5768             23.2365               6.9148       
        873.9896             18.3938               6.6041       
         912.38              9.90448               6.405        
        926.345             -0.185307              6.3351       
        930.069              -11.0922              6.3167       
        932.078              -10.3377              26.811       
        934.2948             -3.36199              26.698       
        935.655              -1.35468              26.628       
        946.3445             2.11908               26.093       
        950.1489             -3.13253              25.906       
        955.8555             6.00182               39.126       
        970.122              15.6757               38.024       
        998.7612             23.9928               35.955       
        1067.676             32.6129               31.912       
        1141.345             36.7032               28.707       
        1217.356             37.8194               26.058       
        1220.098              37.747               25.972       
        1235.989             36.4995               25.485       
        1240.958             34.4409               25.336       
        1248.411             36.8305               29.405       
        1267.044             39.1981               28.731       
        1304.285             40.9346               27.473       
        1310.652             41.0718               27.287       
        1330.713              41.016               26.726       
        1336.063             40.2641               26.582       
        1344.087             41.4509               28.188       
        1364.148             42.8521               27.617       
        1394.281             44.0113               26.813       
        1480.78              45.8154               24.922       
        1490.486             45.8831               24.735       
        1503.445             45.7859               24.492       
        1509.489             45.3126               24.381       
        1518.555             46.0868               25.383       
        1541.22              47.0452               24.974       
        1593.329              48.361               24.063       
        1703.269              50.251               22.11        
        1820.795             51.6042               20.25        
        1946.43              52.6024               18.518       
        2080.733             53.3495               16.915       
        2224.304             53.8968               15.428       
        2377.781             54.2865               14.073       
        2541.848              54.668               12.844       
        2717.235             54.9099               11.717       
        2904.724             55.0655               10.692       
        3105.15              55.2498               9.6854       
        3319.406             55.1905               8.7117       
        3548.445             55.0442               7.8467       
        3793.288             54.8333               7.0689       
        4055.024             54.5398               6.3421       
        4334.821             54.1509               5.6964       
        4633.924             53.6469               5.1242       
        4953.664             52.9708               4.6174       
        5295.467             51.9742               4.1684       
        5660.855             50.1049               3.7541       
        5845.014              47.948               3.5682       
        5934.479             44.8046               3.4816       
        5958.336              41.158               3.4592       
        5994.122             44.7709               10.518       
        6051.453             47.1935               10.305       
        6083.586             47.8639               10.188       
        6311.592              49.291               9.4366       
        6408.198             48.3098               9.1775       
        6433.96              46.6523               9.1113       
        6469.004             48.4282               12.493       
        6472.602             48.5756               12.481       
        6569.208             50.4377               12.156       
        6698.104             51.3533               11.748       
        6800.626             51.2799               11.445       
        6827.965             50.5336               11.368       
        6868.974             51.6492               13.028       
        6915.365             52.3747               12.896       
        6971.496             52.9391               12.739       
        7392.525             55.1795               11.668       
        7902.609              56.613               10.546       
        8447.89              57.5552               9.5034       
        9030.794             58.2224               8.5385       
        9653.919             58.6655               7.6226       
        10320.04             58.9521               6.8109       
        11032.12             59.1366               6.0909       
        11793.34             59.2527               5.4519       
        12607.08             59.3873               4.8664       
        13476.97             59.4424               4.3371       
        14406.88             59.4585               3.8547       
        15400.95              59.408               3.4263       
        16463.62             59.3379               3.0482       
        17599.61             59.2553               2.7141       
        18813.98             59.1643               2.4183       
        20112.15             59.0678               2.1566       
        21499.88             58.9673               1.9251       
        22983.38              58.864                1.72        
        24569.23             58.7578               1.5382       
        26264.5              58.6484               1.3762       
        28076.76             58.5341               1.2199       
        30014.05              58.399               1.0772       
        32085.02             58.2361              0.94878       
        34298.89             58.0303              0.83572       
        36665.51             57.7427               0.7367       
        39195.43             57.2414              0.64993       
        41150.79             56.2616              0.59345       
        41780.65             55.0638               0.5769       
        41899.92             54.3184              0.57385       
        41948.61              53.628              0.57261       
        42200.55              55.08                3.3934       
        42830.41             56.3927               3.3149       
        44791.01             57.5729               3.0868       
        47881.59             58.2861               2.7683       
        51185.42             58.6719               2.4801       
        54717.21             58.9167               2.2208       
        58492.7              59.0794               1.9833       
        62528.7              59.1879               1.7708       
        66843.18             59.2606               1.5808       
        71455.36             59.3083               1.411        
        76385.78             59.3386               1.2594       
        81656.4              59.3582               1.1226       
        87290.69             59.3943              0.99577       
        93313.74             59.3901              0.88198       
        99752.39             59.3794              0.78127       
        106635.3             59.3645              0.69213       
        113993.1              59.347               0.6132       
        121858.7             59.3279              0.54333       
        130266.9             59.3081              0.48145       
        139255.3             59.2879              0.42666       
        148864.0              59.268              0.37813       
        159135.6             59.2485              0.33515       
        170115.9             59.2296              0.29707       
        181853.9             59.2114              0.26334       
        194401.8             59.1943              0.23394       
        207815.6             59.1783              0.20785       
        222154.8             59.1635              0.18468       
        237483.5             59.1496               0.1641       
        253869.9             59.1368              0.14582       
        271386.9             59.1249              0.12959       
        290112.6             59.1139              0.11517       
        310130.4             59.1037              0.10236       
        331529.4             59.0944              0.090977      
        354404.9             59.0858              0.080867      
        378858.8             59.0779              0.071883      
        405000.1             59.0707               0.0639       
        432945.1             59.0641              0.056807      
