# Pt
# Form Factors from Chantler Tables
# DOI: https://dx.doi.org/10.18434/T4HS32
# automatically retrived 2019-02-28 using URL https://physics.nist.gov/cgi-bin/ffast/ffast.pl

# For f_rel the second term, which is 3/5th of the Cromer-Liberman value, is used as suggested by Chantler.
# Real and imaginary part of the formfactors are: f'(E)=f1(E)+f_rel+f_NT and f''(E)=f2(E)
# see also original publication:  https://doi.org/10.1063/1.555974

# Z = 78
# f_rel = -0.9816 e/atom  (Relativistic correction estimate)
# f_NT = -0.017109 e/atom (Nuclear Thomson correction)


#        E (eV)            f1 (e/atom)          f2 (e/atom)     
        6.002872             3.45968                0.0         
        6.094753             2.90784                0.0         
        6.119254             2.30428                0.0         
        6.156007             2.88178               1.1551       
        6.247887             3.34662               1.1481       
        7.291108             3.09785               1.1299       
        7.402706             2.65794               1.1443       
        7.432466             2.16631               1.1487       
        7.477105             2.64967               2.1018       
        7.588704             3.04264               2.1026       
         10.69               2.24208                3.68        
        11.42761             1.99002               4.4201       
        12.21612             1.81942               5.3113       
        13.05903             1.77552               6.3469       
        13.9601               1.9063               7.5068       
        14.92335             2.25771               8.7543       
        15.95306             2.86702               10.035       
        17.05382             3.75549               11.28        
        18.23053             4.92172               12.411       
        19.48844             6.40179               13.349       
        20.83314             8.01344               14.024       
        22.27063             9.74487               14.387       
        23.8073              11.5501               14.416       
        25.45001             13.2561               14.117       
        27.20606             14.8194               13.517       
        29.08327              16.172               12.675       
        31.09002             17.2718               11.661       
        33.23523             18.0957               10.543       
        35.52846             18.6414               9.3903       
        37.97993              18.922               8.2613       
        40.60054              18.953               7.1971       
        43.40198             18.7355               6.2238       
        46.39671             18.2131               5.3545       
        49.59809             17.0219               4.5925       
         50.666              16.1027               4.3714       
        51.4415              14.2792                4.22        
        51.6483               12.113               4.1809       
        51.9585              14.3873               8.3732       
         52.734              16.3401               8.0731       
        53.02035             16.6791               7.9662       
        56.67876             18.2365               6.761        
        60.58959             18.3622               5.7339       
         63.994              17.6527               5.0073       
        64.77028             17.0874               4.8606       
        64.9735              16.7849               4.8232       
        65.2347               15.784               4.7758       
        65.6265              16.7772               6.6487       
         66.606              17.6018               6.4648       
        69.23942             18.0672               6.0159       
         69.678              18.0661               5.947        
        70.7445              17.8893               5.786        
        71.0289              17.5907               5.7446       
        71.4555              17.9428               6.3025       
         72.522              18.2507               6.1304       
         72.814              18.2857               6.084        
        73.9285              18.2725               5.9091       
        74.01695             18.2476               5.8954       
        74.2257              18.0963               5.8631       
        74.6715              18.3595               6.2059       
         75.786               18.635               6.0247       
        79.12411             18.9032               5.5118       
        84.58368              18.875               4.8128       
        90.41995             18.5797               4.2658       
        96.65893             18.1081               3.8676       
         99.666              17.8325               3.7348       
        101.1915             17.6603               3.6809       
        101.5983             17.5791               3.668        
        102.2085             17.5688               3.7376       
        103.3284             17.4993               3.7087       
        103.734              17.4683               3.6993       
        110.4581             16.8687               3.625        
        118.0797             16.1244               3.7183       
        126.2272             15.3098               4.0106       
        134.9368             14.4497               4.5188       
        144.2475             13.5764               5.2758       
        154.2005             12.7388               6.307        
        164.8404             12.0002               7.6233       
        176.2144             11.4223               9.2248       
        188.3732             11.0854               11.089       
        201.3709             11.0666               13.17        
        215.2655             11.4312               15.392       
        230.1188             12.1856               17.665       
        245.997              13.3649               19.883       
        262.9708             14.9325               21.941       
        281.1158             16.8186               23.742       
        300.5128             18.8722               25.194       
        307.034              19.4815               25.567       
        311.7335             19.7467               25.802       
        312.9867             19.5919               25.86        
        314.8665              20.067               26.509       
        319.566              20.7951               26.733       
        321.2482             21.0057               26.807       
        324.184              21.3431               26.93        
        329.146              21.7758               27.116       
        330.4692             21.7179               27.161       
        332.454              22.1665               27.655       
        337.416              22.9359               27.824       
        343.4143             23.7157               28.001       
        367.1099             26.4497               28.433       
        392.4405             29.0098               28.517       
        419.5189             31.3791               28.305       
        448.4657             33.5086               27.854       
        479.4098             35.3128               27.22        
         500.0               37.3774               26.748       
         502.5               37.4426               26.689       
        505.0125             37.4938               26.629       
       507.53756             37.5258               26.569       
       510.07525             37.5295               26.508       
       512.62563             37.4861               26.447       
       515.18875             37.3474               26.385       
        517.7647             36.8834               26.322       
       518.33567             36.5845               26.308       
       519.66431             36.6506               27.935       
       520.35352             37.0606               27.919       
       522.95529             37.7556               27.859       
       525.57007             38.1518               27.797       
       528.19792             38.4568               27.736       
       530.83891             38.7166               27.674       
        533.4931             38.9489               27.611       
       536.16057             39.1625               27.548       
       538.84137             39.3625               27.485       
       541.53558              39.552               27.421       
       544.24325              39.733               27.357       
       546.96447             39.9071               27.292       
       549.69929             40.0751               27.227       
       552.44779              40.238               27.162       
       555.21003             40.3962               27.096       
       557.98608             40.5502               27.03        
       560.77601             40.7004               26.964       
       563.57989             40.8471               26.897       
       566.39779             40.9903               26.83        
       569.22978             41.1304               26.763       
       572.07593             41.2673               26.696       
        574.9363             41.4011               26.628       
       577.81099             41.5319               26.56        
       580.70004             41.6595               26.492       
       583.60354             41.7837               26.423       
       586.52156             41.9044               26.354       
       589.45417             42.0212               26.285       
       592.40144             42.1333               26.216       
       595.36345             42.2398               26.146       
       598.34026             42.3387               26.076       
       601.33196             42.4263               26.006       
       604.33862              42.493               25.936       
       607.36032             42.4988               25.865       
       608.32884             42.4477               25.843       
       610.07116             42.5165               26.181       
       610.39712             42.5675               26.173       
        613.4491             42.8395               26.104       
       616.51635             43.0235               26.035       
       619.59893             43.1834               25.965       
       622.69693              43.331               25.896       
       625.81041             43.4711               25.826       
       628.93946             43.6057               25.756       
       632.08416             43.7361               25.685       
       635.24458              43.863               25.615       
        638.4208             43.9869               25.545       
       641.61291             44.1081               25.474       
       644.82097              44.227               25.403       
       648.04508             44.3436               25.333       
        651.2853             44.4581               25.262       
       654.54173             44.5706               25.19        
       657.81444             44.6811               25.119       
       661.10351             44.7897               25.048       
       664.40903             44.8964               24.977       
       667.73107             45.0012               24.905       
       671.06973              45.104               24.833       
       674.42508             45.2048               24.762       
        677.7972             45.3036               24.69        
       681.18619             45.4002               24.618       
       684.59212             45.4944               24.546       
       688.01508              45.586               24.474       
       691.45515             45.6747               24.402       
       694.91243             45.7602               24.33        
       698.38699             45.8416               24.257       
       701.87893             45.9183               24.185       
       705.38832             45.9885               24.113       
       708.91526             46.0497               24.04        
       712.45984             46.0968               23.968       
       716.02214             46.1171               23.895       
       719.60225             46.0602               23.823       
       720.85202             45.9688               23.797       
       723.20026             46.0399               24.286       
       726.81626             46.3737               24.214       
       730.45034              46.566               24.142       
        734.1026              46.723               24.07        
       737.77311             46.8632               23.998       
       741.46197             46.9933               23.926       
       745.16928             47.1166               23.855       
       748.89513             47.2348               23.783       
       752.63961             47.3492               23.711       
        756.4028             47.4603               23.639       
       760.18482             47.5687               23.567       
       763.98574             47.6749               23.495       
       767.80567             47.7789               23.423       
        771.6447             47.8812               23.351       
       775.50292             47.9818               23.279       
       779.38044             48.0809               23.207       
       783.27734             48.1786               23.135       
       787.19373              48.275               23.063       
       791.12969             48.3702               22.991       
       795.08534             48.4642               22.919       
       799.06077             48.5571               22.847       
       803.05607              48.649               22.775       
       807.07135             48.7399               22.703       
       811.10671             48.8298               22.631       
       815.16224             48.9187               22.559       
       819.23806             49.0068               22.487       
       823.33425             49.0939               22.415       
       827.45092             49.1802               22.343       
       831.58817             49.2657               22.271       
       835.74611             49.3504               22.199       
       839.92484             49.4342               22.128       
       844.12447             49.5173               22.056       
       848.34509             49.5997               21.984       
       852.58682             49.6813               21.912       
       856.84975             49.7622               21.84        
        861.134              49.8425               21.769       
       865.43967             49.9221               21.697       
       869.76687             50.0011               21.625       
        874.1157             50.0794               21.554       
       878.48628             50.1572               21.482       
       882.87871             50.2342               21.409       
        887.2931             50.3105               21.337       
       891.72957             50.3862               21.265       
       896.18822             50.4612               21.192       
       900.66916             50.5356               21.12        
        905.1725             50.6094               21.048       
       909.69837             50.6826               20.976       
       914.24686             50.7553               20.904       
       918.81809             50.8275               20.832       
       923.41218             50.8992               20.76        
       928.02924             50.9705               20.688       
       932.66939             51.0415               20.616       
       937.33274             51.1122               20.544       
        942.0194             51.1945               20.472       
        946.7295              51.265               20.401       
       951.46315             51.3357               20.329       
       956.22046             51.4065               20.258       
       961.00156              51.478               20.186       
       965.80657             51.5503               20.115       
        970.6356              51.624               20.044       
       975.48878               51.7                19.973       
       980.36623             51.7797               19.901       
       985.26806             51.8653               19.83        
        990.1944             51.9615               19.76        
       995.14537             52.0885               19.689       
       1000.1211             52.2511               19.617       
       1005.1217             52.3662               19.523       
       1010.1473             52.4653               19.429       
        1015.198             52.5532               19.335       
        1020.274             52.6328               19.242       
       1025.3754             52.7062               19.149       
       1030.5023             52.7744               19.056       
       1035.6548             52.8385               18.963       
       1040.8331             52.8989               18.871       
       1046.0372             52.9562               18.779       
       1051.2674             53.0109               18.687       
       1056.5238             53.0631               18.596       
       1061.8064             53.1132               18.505       
       1067.1154             53.1614               18.414       
        1072.451             53.2077               18.324       
       1077.8132             53.2524               18.234       
       1083.2023             53.2955               18.145       
       1088.6183             53.3371               18.056       
       1094.0614             53.3773               17.968       
       1099.5317             53.4162               17.88        
       1105.0294             53.4538               17.792       
       1110.5545             53.4902               17.705       
       1116.1073             53.5254               17.619       
       1121.6878             53.5595               17.532       
       1127.2963             53.5925               17.447       
       1132.9328             53.6245               17.361       
       1138.5974             53.6554               17.276       
       1144.2904             53.6852               17.192       
       1150.0119             53.7141               17.108       
       1155.7619             53.7421               17.024       
       1161.5407             53.7691               16.941       
       1167.3484             53.7952               16.858       
       1173.1852             53.8205               16.776       
       1179.0511             53.8448               16.694       
       1184.9464             53.8683               16.613       
       1190.8711              53.891               16.532       
       1196.8254             53.9129               16.451       
       1202.8096             53.9341               16.371       
       1208.8236             53.9544               16.292       
       1214.8677             53.9741               16.213       
       1220.9421              53.993               16.134       
       1227.0468             54.0111               16.055       
        1233.182             54.0285               15.976       
       1239.3479             54.0452               15.898       
       1245.5447             54.0611               15.821       
       1251.7724             54.0763               15.744       
       1258.0312             54.0907               15.66        
       1264.3214             54.1037               15.574       
        1270.643             54.1153               15.489       
       1276.9962             54.1256               15.405       
       1283.3812             54.1346               15.321       
       1289.7981             54.1424               15.238       
       1296.2471              54.149               15.155       
       1302.7283             54.1543               15.073       
        1309.242             54.1585               14.992       
       1315.7882             54.1616               14.91        
       1322.3671             54.1635               14.83        
        1328.979             54.1642               14.745       
       1335.6239             54.1633               14.659       
        1342.302              54.161               14.567       
       1349.0135             54.1568               14.476       
       1355.7586             54.1508               14.386       
       1362.5374             54.1431               14.296       
        1369.35              54.1337               14.208       
       1376.1968             54.1225               14.12        
       1383.0778             54.1096               14.032       
       1389.9932             54.0951               13.946       
       1396.9431             54.0789               13.858       
       1403.9278              54.061               13.768       
       1410.9475             54.0413               13.679       
       1418.0022             54.0197               13.59        
       1425.0922             53.9962               13.502       
       1432.2177             53.9709               13.415       
       1439.3788             53.9438               13.328       
       1446.5757             53.9148               13.243       
       1453.8086              53.884               13.158       
       1461.0776             53.8514               13.074       
        1468.383             53.8169               12.99        
       1475.7249             53.7805               12.908       
       1483.1035             53.7423               12.826       
        1490.519             53.7022               12.744       
       1497.9716             53.6602               12.664       
       1505.4615             53.6163               12.584       
       1512.9888             53.5704               12.505       
       1520.5537             53.5226               12.426       
       1528.1565             53.4728               12.348       
       1535.7973              53.421               12.271       
       1543.4763             53.3671               12.194       
       1551.1937             53.3112               12.119       
       1558.9496             53.2599               12.043       
       1566.7444             53.1997               11.969       
       1574.5781             53.1373               11.895       
        1582.451             53.0726               11.821       
       1590.3633             53.0056               11.749       
       1598.3151             52.9363               11.677       
       1606.3066             52.8645               11.605       
       1614.3382             52.7902               11.534       
       1622.4099             52.7134               11.464       
       1630.5219             52.6339               11.394       
       1638.6745             52.5517               11.325       
       1646.8679             52.4667               11.256       
       1655.1022             52.3788               11.188       
       1663.3777             52.2879               11.121       
       1671.6946             52.1939               11.054       
       1680.0531             52.0967               10.988       
       1688.4534             51.9961               10.922       
       1696.8956             51.8921               10.857       
       1705.3801             51.7845               10.792       
        1713.907             51.6731               10.728       
       1722.4766             51.5578               10.665       
       1731.0889             51.4384               10.602       
       1739.7444             51.3148               10.539       
       1748.4431             51.1867               10.477       
       1757.1853             51.0538               10.415       
       1765.9712             50.9161               10.354       
       1774.8011             50.7731               10.294       
       1783.6751             50.6247               10.234       
       1792.5935             50.4705               10.174       
       1801.5565             50.3102               10.115       
       1810.5642             50.1434               10.057       
       1819.6171             49.9698               9.9984       
       1828.7151             49.7898               9.9408       
       1837.8587             49.6011               9.8836       
        1847.048             49.4042               9.8269       
       1856.2833             49.1983               9.7706       
       1865.5647             48.9829               9.7148       
       1874.8925             48.7572               9.6594       
        1884.267             48.5205               9.6045       
       1893.6883             48.2717                9.55        
       1903.1567             48.0099               9.496        
       1912.6725             47.7339               9.4424       
       1922.2359             47.4424               9.3891       
       1931.8471             47.1337               9.3363       
       1941.5063             46.8061               9.2839       
       1951.2138             46.4575               9.2319       
       1960.9699             46.0855               9.1803       
       1970.7747              45.687               9.1291       
       1980.6286             45.2586               9.0783       
       1990.5318              44.796               9.0279       
       2000.4844             44.2939               8.9779       
       2010.4868             43.7457               8.9283       
       2020.5393             43.1428               8.8791       
        2030.642             42.4742               8.8303       
       2040.7952             41.7247               8.7819       
       2050.9992             40.8734               8.7338       
       2061.2542             39.8895               8.6861       
       2071.5604             38.7253               8.6388       
       2081.9182             37.2998               8.5908       
       2092.3278             35.4583               8.5423       
       2102.7895             32.8376               8.4942       
       2113.3034             28.1254               8.4464       
       2121.0653             12.8681               8.4116       
       2122.1346             12.5624               25.721       
       2123.8699             20.5054               25.691       
       2134.4893             29.7864               25.509       
       2145.1617             32.6834               25.328       
       2155.8875             34.1696               25.148       
        2166.667              34.877               24.97        
       2177.5003             34.8926               24.793       
       2188.3878              33.888               24.618       
       2199.3297             28.8564               24.444       
       2201.1954              24.303               24.415       
       2202.6046             24.2383               35.85        
       2210.3264             33.9315               35.668       
        2221.378             37.7893               35.41        
       2232.4849             40.1466               35.154       
       2243.6473             41.9226                34.9        
       2254.8656             43.3738               34.648       
       2266.1399             44.6117               34.398       
       2277.4706             45.6958               34.149       
       2288.8579             46.6622               33.903       
       2300.3022             47.5347               33.659       
       2311.8037             48.3299               33.416       
       2323.3628             49.0598               33.176       
       2334.9796             49.7337               32.937       
       2346.6545             50.3585                32.7        
       2358.3878             50.9399               32.465       
       2370.1797             51.4823               32.231       
       2382.0306             51.9894                32.0        
       2393.9407             52.4641               31.77        
       2405.9104             52.9089               31.542       
        2417.94              53.3257               31.316       
       2430.0297              53.716               31.091       
       2442.1798             54.0812               30.868       
       2454.3907             54.4221               30.646       
       2466.6627             54.7392               30.425       
        2478.996             55.0328               30.206       
        2491.391             55.3029               29.989       
       2503.8479             55.5489               29.774       
       2516.3672             55.7698               29.56        
        2528.949             55.9639               29.348       
       2541.5938             56.1284               29.137       
       2554.3017             56.2593               28.928       
       2567.0732             56.3501               28.721       
       2579.9086             56.3905               28.515       
       2592.8082             56.3628               28.311       
       2605.7722             56.2333               28.108       
       2618.8011             55.9261               27.907       
       2631.8951             55.2002               27.708       
       2642.9266             52.9149               27.541       
       2645.0545             50.0359               27.51        
       2647.8735             52.9484               32.133       
       2658.2798             55.6183               31.952       
       2671.5712             56.9294               31.724       
       2684.9291             57.7856               31.497       
       2698.3537              58.452               31.272       
       2711.8455             59.0107               31.049       
       2725.4047             59.4983               30.827       
       2739.0317             59.9343               30.607       
       2752.7269             60.3302               30.389       
       2766.4905             60.6921               30.167       
        2780.323             61.0216               29.949       
       2794.2246              61.329               29.741       
       2808.1957             61.6185               29.537       
       2822.2367             61.8915               29.334       
       2836.3479             62.1491               29.134       
       2850.5296             62.3923               28.936       
       2864.7823             62.6218               28.74        
       2879.1062             62.8365               28.541       
       2893.5017             63.0361               28.344       
       2907.9692             63.2201               28.148       
       2922.5091             63.3874               27.954       
       2937.1216             63.5359               27.761       
       2951.8072              63.662               27.571       
       2966.5662             63.7592               27.381       
       2981.3991              63.815               27.193       
       2996.3061             63.8003               27.007       
       3011.2876             63.6373               26.803       
       3022.1418             63.0881               26.653       
        3026.344              61.266               26.595       
       3030.8581             63.1851               28.305       
       3041.4758             64.0249               28.149       
       3056.6831             64.6111               27.929       
       3071.9666             65.0211               27.711       
       3087.3264              65.354               27.494       
        3102.763             65.6406               27.279       
       3118.2768             65.8946               27.065       
       3133.8682             66.1231               26.853       
       3149.5376              66.33                26.642       
       3165.2853              66.517               26.433       
       3181.1117             66.6847               26.228       
       3197.0172             66.8356               26.029       
       3213.0023             66.9692               25.831       
       3229.0673             67.0817               25.636       
       3245.2127             67.1661               25.442       
       3261.4387              67.206               25.25        
       3277.7459             67.1514               25.06        
       3289.1773             66.9216               24.928       
       3294.1347             66.5163               24.871       
       3302.8227             67.0492               25.873       
       3310.6053             67.3904               25.784       
       3327.1584             67.8095               25.597       
       3343.7941              68.108               25.411       
       3360.5131             68.3571               25.227       
       3377.3157              68.578               25.045       
       3394.2023             68.7799               24.865       
       3411.1733             68.9679               24.686       
       3428.2291             69.1449               24.509       
       3445.3703              69.313               24.332       
       3462.5971             69.4729               24.155       
       3479.9101             69.6255               23.981       
       3497.3097             69.7719               23.807       
       3514.7962             69.9126               23.636       
       3532.3702             70.0482               23.466       
       3550.0321             70.1792               23.297       
       3567.7822             70.3058               23.13        
       3585.6211             70.4284               22.965       
       3603.5492             70.5473               22.801       
        3621.567             70.6627               22.638       
       3639.6748             70.7749               22.477       
       3657.8732             70.8839               22.318       
       3676.1626              70.99                22.159       
       3694.5434             71.0934               22.002       
       3713.0161             71.1941               21.847       
       3731.5812             71.2923               21.693       
       3750.2391             71.3882               21.54        
       3768.9903             71.4818               21.388       
       3787.8352             71.5732               21.238       
       3806.7744             71.6626               21.089       
       3825.8083             71.7501               20.941       
       3844.9373             71.8357               20.795       
        3864.162             71.9197               20.649       
       3883.4828              72.002               20.505       
       3902.9002             72.0829               20.362       
       3922.4147             72.1624               20.221       
       3942.0268             72.2406               20.079       
       3961.7369             72.3169               19.936       
       3981.5456             72.3912               19.795       
       4001.4533             72.4637               19.655       
       4021.4606             72.5346               19.516       
       4041.5679             72.6038               19.378       
       4061.7757             72.6716               19.241       
       4082.0846             72.7379               19.105       
        4102.495             72.8028               18.97        
       4123.0075             72.8664               18.836       
       4143.6226             72.9288               18.704       
       4164.3407             72.9901               18.572       
       4185.1624             73.0502               18.441       
       4206.0882             73.1093               18.312       
       4227.1186             73.1674               18.183       
       4248.2542             73.4221               18.053       
       4269.4955             73.4787               17.919       
        4290.843             73.5336               17.785       
       4312.2972             73.5866               17.651       
       4333.8587             73.6378               17.519       
        4355.528             73.6875               17.388       
       4377.3056             73.7357               17.258       
       4399.1921             73.7825               17.129       
       4421.1881             73.9631               16.997       
        4443.294             74.0071               16.866       
       4465.5105             74.0492               16.735       
       4487.8381             74.0897               16.606       
       4510.2772             74.1286               16.477       
       4532.8286              74.166               16.35        
       4555.4928             74.2019               16.224       
       4578.2702             74.2364               16.099       
       4601.1616             74.2697               15.975       
       4624.1674             74.3016               15.853       
       4647.2882             74.3324               15.731       
       4670.5247              74.362               15.61        
       4693.8773             74.3904               15.491       
       4717.3467             74.4178               15.373       
       4740.9334             74.4441               15.255       
       4764.6381             74.4694               15.139       
       4788.4613             74.4938               15.023       
       4812.4036             74.5172               14.909       
       4836.4656             74.5397               14.796       
       4860.6479             74.5613               14.684       
       4884.9512             74.5821               14.572       
       4909.3759              74.602               14.462       
       4933.9228             74.6212               14.353       
       4958.5924             74.6396               14.244       
       4983.3854             74.6572               14.137       
       5008.3023             74.6741               14.03        
       5033.3438             74.6904               13.925       
       5058.5105             74.7059               13.82        
       5083.8031             74.7208               13.716       
       5109.2221             74.7351               13.614       
       5134.7682             74.7488               13.512       
       5160.4421             74.7619               13.411       
       5186.2443             74.7745               13.311       
       5212.1755             74.7865               13.211       
       5238.2364             74.7981               13.113       
       5264.4276             74.8091               13.016       
       5290.7497             74.8198               12.919       
       5317.2034             74.9308               12.819       
       5343.7895             74.9408               12.72        
       5370.5084             74.9499               12.622       
       5397.3609             74.9583               12.525       
       5424.3477             74.9659               12.429       
       5451.4695             74.9728               12.334       
       5478.7268              74.979               12.239       
       5506.1205             74.9845               12.145       
       5533.6511             74.9894               12.053       
       5561.3193             74.9937               11.96        
       5589.1259             74.9974               11.869       
       5617.0716             75.0005               11.779       
       5645.1569             75.0031               11.689       
       5673.3827             75.0052                11.6        
       5701.7496             75.0067               11.512       
       5730.2584             75.0078               11.425       
       5758.9096             75.0084               11.339       
       5787.7042             75.0085               11.253       
       5816.6427             75.0082               11.168       
       5845.7259             75.0075               11.084       
       5874.9546             75.0063                11.0        
       5904.3293             75.0048               10.917       
        5933.851             75.0028               10.834       
       5963.5202             75.0005               10.752       
       5993.3378             74.9977               10.67        
       6023.3045             74.9946               10.59        
        6053.421             75.0335               10.51        
       6083.6882             75.0299               10.429       
       6114.1066             75.0259               10.349       
       6144.6771             75.0213               10.27        
       6175.4005             75.0163               10.191       
       6206.2775             75.0108               10.113       
       6237.3089             75.0049               10.036       
       6268.4954             74.9985               9.9587       
       6299.8379             74.9918               9.8823       
       6331.3371             74.9845               9.8066       
       6362.9938             74.9769               9.7316       
       6394.8088             74.9689               9.6573       
       6426.7828             74.9605               9.5836       
       6458.9167             74.9517               9.5105       
       6491.2113             74.9426               9.4381       
       6523.6674              74.933               9.3664       
       6556.2857             74.9232               9.2952       
       6589.0671              74.913               9.2247       
       6622.0125             74.9187               9.1543       
       6655.1225             74.9079               9.0845       
       6688.3981             74.8967               9.0153       
       6721.8401             74.8852               8.9467       
       6755.4493             74.8733               8.8786       
       6789.2266              74.861               8.8112       
       6823.1727             74.8484               8.7444       
       6857.2886             74.8355               8.6782       
        6891.575             74.8222               8.6125       
       6926.0329             74.8085               8.5474       
       6960.6631             74.7946               8.4829       
       6995.4664             74.7803               8.4189       
       7030.4437             74.7657               8.3555       
       7065.5959             74.7507               8.2926       
       7100.9239             74.7355               8.2303       
       7136.4285             74.7199               8.1686       
       7172.1107             74.7041               8.1073       
       7207.9712             74.6879               8.0466       
       7244.0111             74.6714               7.9864       
       7280.2311             74.6546               7.9268       
       7316.6323             74.6376               7.8676       
       7353.2155             74.6202               7.809        
       7389.9815             74.6025               7.7509       
       7426.9314             74.5845               7.6933       
       7464.0661             74.5662               7.6361       
       7501.3864             74.5476               7.5795       
       7538.8934             74.5287               7.5233       
       7576.5878             74.5095               7.4677       
       7614.4708              74.49                7.4125       
       7652.5431             74.4701               7.3577       
       7690.8058              74.45                7.3035       
       7729.2599             74.4296               7.2497       
       7767.9062             74.4089               7.1964       
       7806.7457             74.3878               7.1435       
       7845.7794             74.3664               7.0911       
       7885.0083             74.3448               7.0391       
       7924.4334             74.3228               6.9875       
       7964.0555             74.3004               6.9364       
       8003.8758             74.2778               6.8858       
       8043.8952             74.2548               6.8355       
       8084.1147             74.2315               6.7857       
       8124.5352             74.2079               6.7363       
       8165.1579             74.1839               6.6873       
       8205.9837             74.1596               6.6388       
       8247.0136              74.135               6.5906       
       8288.2487              74.11                6.5429       
       8329.6899             74.0847               6.4955       
       8371.3384              74.059               6.4486       
       8413.1951              74.033               6.4021       
        8455.261             74.0066               6.3559       
       8497.5373             73.9799               6.3101       
        8540.025             73.9529               6.2647       
        9030.794             73.6951               5.7619       
        9653.919              73.13                5.1487       
        10320.04             72.2348               4.5951       
        11032.12             70.5039               4.1092       
        11332.43             68.8504               3.9307       
        11505.88             66.1079               3.8327       
        11552.14             62.8977               3.8063       
        11621.52             66.0884               10.039       
        11793.34             68.8841               9.786        
        11794.97             68.8982               9.7837       
        12607.08             71.3032               8.7112       
        13007.15             70.9797               8.2482       
        13206.24             69.7834               8.0311       
        13259.33              68.199               7.9745       
        13338.96             69.8565               11.061       
        13476.97             71.0542               10.866       
        13538.05             71.3171               10.781       
        13602.3              71.5115               10.693       
        13810.5              71.5297               10.415       
        13866.02             70.8526               10.343       
        13949.3              71.8848               11.865       
        14157.5              73.0669               11.594       
        14406.88             73.8451               11.283       
        15400.95             75.5654               10.156       
        16463.62             76.5401               9.1308       
        17599.61             77.1783               8.2076       
        18813.98              77.607               7.3678       
        20112.15             77.8921               6.614        
        21499.88             78.0801               5.9398       
        22983.38             78.2008               5.3372       
        24569.23             78.3316               4.7908       
        26264.5              78.3662               4.3029       
        28076.76             78.4496               3.8346       
        30014.05             78.4172               3.4044       
        32085.02             78.3568               3.0249       
        34298.89             78.2796               2.6899       
        36665.51             78.1915               2.394        
        39195.43             78.0962               2.1323       
        41899.92             77.9955               1.9008       
        44791.01             77.8905               1.6959       
        47881.59             77.7808               1.514        
        51185.42             77.6651               1.3516       
        54717.21             77.5387               1.2057       
        58492.7              77.3958               1.0758       
        62528.7              77.2241              0.95706       
        66843.18             76.9955              0.85033       
        71455.36             76.6375              0.75579       
        76385.78             75.7414              0.67191       
        76826.9              75.5554              0.66514       
        78002.82             74.4831              0.64764       
        78316.4              73.1997               0.6431       
        78786.77             74.4981               3.1616       
        79962.69             75.6651               3.0867       
        81656.4              76.2943               2.9959       
        87290.69             77.1764               2.7112       
        93313.74             77.6103               2.4374       
        99752.39             77.8719               2.1733       
        106635.3             78.0302               1.9395       
        113993.1             78.1365               1.7348       
        121858.7             78.2074               1.5519       
        130266.9             78.2536               1.3884       
        139255.3             78.2822               1.2424       
        148864.0             78.2982               1.1118       
        159135.6             78.3315              0.99455       
        170115.9              78.33               0.88804       
        181853.9             78.3228              0.79302       
        194401.8             78.3119              0.70825       
        207815.6             78.2983               0.6326       
        222154.8             78.2831              0.56508       
        237483.5             78.2669              0.50482       
        253869.9             78.2503              0.45103       
        271386.9             78.2334               0.403        
        290112.6             78.2167              0.36012       
        310130.4             78.2003              0.32183       
        331529.4             78.1841              0.28763       
        354404.9             78.1683              0.25855       
        378858.8             78.1543               0.2332       
        405000.1             78.1417              0.21035       
        432945.1              78.13               0.18975       
