# Ra
# Form Factors from Chantler Tables
# DOI: https://dx.doi.org/10.18434/T4HS32
# automatically retrived 2019-02-27 using URL https://physics.nist.gov/cgi-bin/ffast/ffast.pl
#
# Z = 88
# f_rel = -2.2901 e/atom  (Relativistic correction estimate)
# f_NT = -0.018795 e/atom (Nuclear Thomson correction)


#        E (eV)            f1 (e/atom)          f2 (e/atom)     
         10.69               8.67455                0.0         
        11.42761              8.4185                0.0         
        12.21612             8.09757                0.0         
        13.05903             7.68553                0.0         
        13.9601              7.13831                0.0         
        14.92335             6.37387                0.0         
        15.95306             5.21453                0.0         
        17.05382             3.15972                0.0         
        18.23053             -2.46801               0.0         
         18.424              -4.82521               0.0         
         18.706              -13.4118               0.0         
        18.7812              -24.1391               0.0         
         18.894              -12.2995              21.336       
         19.176              -1.84644              20.138       
        19.48844             2.84485               18.909       
        20.83314             10.5589               14.58        
        22.27063             13.1235               11.391       
        23.8073              14.0976               9.0734       
        25.45001             14.3662               7.3501       
        27.20606             14.2663               6.043        
        29.08327             13.9478               5.0333       
        31.09002             13.4779               4.2398       
        33.23523             12.8811               3.6055       
        35.52846             12.1549               3.0903       
        37.97993             11.2753               2.6654       
        40.60054             10.1903               2.3101       
         42.63               9.18721               2.0856       
        43.2825              8.75905               2.021        
        43.40198             8.63305               2.0095       
        43.4565               8.5366               2.0043       
        43.7175              8.55332               2.2479       
         44.37               8.34232               2.1712       
        46.39671             7.29145               1.9583       
        49.59809             5.12149               1.686        
        53.02035             2.01512               1.4631       
        56.67876             -2.73805              1.2779       
        60.58959             -11.1748              1.1219       
        64.77028             -32.907              0.98972       
         65.856              -47.4805             0.95999       
         66.864              -84.4775             0.93385       
        67.1328              -129.793             0.92711       
         67.536              -81.5129              90.676       
         68.544              -38.6979              88.107       
        69.23942             -25.183               86.403       
        74.01695             16.7949               76.027       
        79.12411             39.2032               62.841       
        84.58368             50.5308               47.007       
        90.41995             53.9992               32.908       
        96.65893             53.0533               22.176       
        103.3284             50.1907               14.723       
        110.4581             46.8363               9.813        
        118.0797             43.6472               6.6634       
        126.2272             40.8441               4.6603       
        134.9368             38.4318               3.3818       
        144.2475             36.2828               2.5563       
        149.744              35.0009               2.2257       
        152.036              34.1577               2.1119       
        152.6472             33.4855               2.0835       
        153.564              33.9519               3.1829       
        154.2005             34.0869               3.1487       
        155.856              34.1482               3.0639       
        164.8404             33.5149               2.6858       
        176.2144             32.4912               2.3545       
        188.3732             31.4074               2.1264       
        196.392              30.5976               2.0219       
        199.398              30.0729               1.9897       
        200.1996             29.6323               1.9817       
        201.3709             29.9598               2.7326       
        201.402              29.9658               2.732        
        204.408               30.156               2.669        
        215.2655             29.7735               2.4791       
        230.1188             28.9357               2.2949       
        245.997              27.8931               2.1714       
        249.312              27.6465               2.1525       
        253.128               27.308               2.1331       
        254.1456             27.1421               2.1284       
        255.672              27.1336               2.3106       
        259.488              26.9504               2.2969       
        262.9708             26.7324               2.2861       
        281.1158             25.3662               2.2513       
        292.922              24.2392               2.2434       
        297.4055             23.6634               2.2427       
        298.6011             23.3898               2.2426       
        300.5128             23.3078               2.5373       
        304.878              22.9194               2.6178       
        321.2482             20.9903               3.1454       
        343.4143             17.9636               4.8261       
        367.1099             14.9829               8.0373       
        392.4405             12.9109               12.796       
        419.5189             12.5181               18.539       
        448.4657              14.088               24.348       
        479.4098             17.3436               29.352       
         500.0               19.9917               31.83        
         502.5               20.3224               32.085       
        505.0125             20.6558               32.331       
       507.53756             20.9916               32.568       
       510.07525             21.3295               32.798       
       512.62563              21.669               33.018       
       515.18875              22.01                33.23        
        517.7647              22.352               33.433       
       520.35352             22.6946               33.628       
       522.95529             23.0376               33.815       
       525.57007             23.3805               33.993       
       528.19792             23.7231               34.163       
       530.83891              24.065               34.324       
        533.4931             24.4057               34.477       
       536.16057             24.7449               34.622       
       538.84137             25.0822               34.758       
       541.53558             25.4172               34.887       
       544.24325             25.7495               35.008       
       546.96447             26.0786               35.121       
       549.69929             26.4041               35.226       
       552.44779             26.7253               35.323       
       555.21003             27.0418               35.413       
       557.98608             27.3529               35.495       
       560.77601             27.6579               35.57        
       563.57989             27.9561               35.638       
       566.39779             28.2464               35.699       
       569.22978             28.5278               35.752       
       572.07593             28.7989               35.799       
        574.9363             29.0581               35.839       
       577.81099             29.3031               35.873       
       580.70004             29.5311                35.9        
       583.60354             29.7381               35.92        
       586.52156             29.9182               35.935       
       589.45417             30.0619               35.943       
       592.40144             30.1531               35.945       
       595.36345             30.1592               35.942       
       598.34026             29.9953               35.933       
       601.33196             29.2551               35.918       
       602.33476             28.1756               35.912       
       603.06523             28.2393               38.694       
       604.33862             29.6827               38.694       
       607.36032             30.8787               38.691       
       610.39712             31.5882               38.683       
        613.4491             32.1403               38.67        
       616.51635             32.6067               38.653       
       619.59893             33.0128               38.631       
       622.69693             33.3668               38.605       
       625.81041             33.6656               38.574       
       628.93946             33.8905               38.539       
       632.08416              33.976                38.5        
       635.24458             33.4274               38.457       
       635.51339             33.1788               38.453       
       636.28665             33.2693               40.113       
        638.4208             34.5166               40.092       
       641.61291             35.3225               40.056       
       644.82097             35.9249               40.018       
       648.04508             36.4485               39.976       
        651.2853             36.9281               39.931       
       654.54173             37.3785               39.883       
       657.81444             37.8076               39.832       
       661.10351             38.2202               39.778       
       664.40903             38.6194               39.721       
       667.73107             39.0072               39.661       
       671.06973             39.3852               39.599       
       674.42508             39.7542               39.533       
        677.7972             40.1151               39.465       
       681.18619             40.4686               39.394       
       684.59212             40.8152               39.32        
       688.01508             41.1552               39.243       
       691.45515             41.4891               39.165       
       694.91243             41.8173               39.084       
       698.38699             42.1399                39.0        
       701.87893             42.4572               38.915       
       705.38832             42.7696               38.827       
       708.91526             43.0769               38.737       
       712.45984             43.3794               38.645       
       716.02214             43.6772               38.551       
       719.60225             43.9702               38.454       
       723.20026             44.2586               38.356       
       726.81626             44.5425               38.256       
       730.45034             44.8219               38.154       
        734.1026             45.0973               38.05        
       737.77311             45.3681               37.945       
       741.46197             45.6343               37.838       
       745.16928             45.8962               37.729       
       748.89513             46.1537               37.619       
       752.63961             46.4069               37.507       
        756.4028             46.6557               37.394       
       760.18482             46.9002               37.28        
       763.98574             47.1418               37.165       
       767.80567             47.3777               37.049       
        771.6447             47.6093               36.931       
       775.50292             47.8366               36.813       
       779.38044             48.0595               36.694       
       783.27734              48.278               36.573       
       787.19373              48.492               36.453       
       791.12969             48.7015               36.331       
       795.08534             48.9063               36.208       
       799.06077             49.1065               36.085       
       803.05607             49.3018               35.962       
       807.07135             49.4921               35.838       
       811.10671             49.6771               35.713       
       815.16224             49.8568               35.588       
       819.23806             50.0306               35.462       
       823.33425             50.1983               35.336       
       827.45092             50.3593               35.21        
       831.58817             50.5131               35.084       
       835.74611             50.6587               34.957       
       839.92484             50.7952               34.831       
       844.12447              50.921               34.704       
       848.34509             51.0341               34.577       
       852.58682             51.1313               34.45        
       856.84975             51.2079               34.322       
        861.134              51.2561               34.195       
       865.43967             51.2614               34.068       
       869.76687             51.1919               33.941       
        874.1157             50.9533               33.815       
       878.13301             50.0116               33.698       
       878.48628             49.7184               33.688       
       880.06703             50.0925               35.771       
       882.87871              51.132               35.691       
        887.2931              51.837               35.565       
       891.72957             52.3086               35.437       
       896.18822             52.6899               35.31        
       900.66916             53.0796               35.183       
        905.1725              53.381               35.056       
       909.69837             53.6606               34.929       
       914.24686             53.9237               34.802       
       918.81809              54.174               34.676       
       923.41218             54.4138               34.55        
       928.02924             54.6448               34.425       
       932.66939             54.8684               34.299       
       937.33274             55.0855               34.174       
        942.0194             55.2969               34.049       
        946.7295             55.5032               33.925       
       951.46315              55.705               33.801       
       956.22046             55.9026               33.678       
       961.00156             56.0964               33.554       
       965.80657             56.2868               33.432       
        970.6356              56.474               33.31        
       975.48878             56.6583               33.188       
       980.36623             56.8399               33.067       
       985.26806             57.0189               32.946       
        990.1944             57.1956               32.825       
       995.14537             57.3702               32.705       
       1000.1211             57.5463               32.586       
       1005.1217             57.7446               32.45        
       1010.1473             57.9277               32.315       
        1015.198             58.1027               32.18        
        1020.274             58.2709               32.042       
       1025.3754             58.4309               31.896       
       1030.5023             58.5829               31.75        
       1035.6548             58.7255               31.605       
       1040.8331             58.8563               31.46        
       1046.0372             58.9694               31.316       
       1051.2674             59.0469               31.172       
       1056.3415              58.973               31.033       
       1056.5238             58.9564               31.028       
       1058.8586             59.0552               31.408       
       1061.8064              59.313               31.327       
       1067.1154             59.5829               31.184       
        1072.451              59.798               31.04        
       1077.8132              59.991               30.893       
       1083.2023             60.1701               30.743       
       1088.6183             60.3396               30.593       
       1094.0614             60.5016               30.443       
       1099.5317             60.6574               30.294       
       1105.0294             60.8076               30.146       
       1110.5545             60.9527               29.998       
       1116.1073             61.0936               29.852       
       1121.6878             61.2307               29.706       
       1127.2963             61.3642               29.561       
       1132.9328             61.4942               29.416       
       1138.5974             61.6206               29.273       
       1144.2904             61.7436               29.129       
       1150.0119              61.863               28.987       
       1155.7619             61.9786               28.845       
       1161.5407             62.0901               28.703       
       1167.3484             62.1972               28.563       
       1173.1852             62.2989               28.423       
       1179.0511             62.3941               28.284       
       1184.9464             62.4806               28.145       
       1190.8711             62.5541               28.007       
       1196.8254             62.6045               27.862       
       1202.8096             62.5965               27.686       
       1206.9862             62.4346               27.566       
       1208.8236             62.2684               28.07        
       1209.8138             62.5012               28.041       
       1214.8677             62.8656               27.897       
       1220.9421             63.0927               27.725       
       1227.0468             63.2691               27.555       
        1233.182             63.4222               27.386       
       1239.3479             63.5611               27.219       
       1245.5447             63.6899               27.053       
       1251.7724             63.8109               26.888       
       1258.0312             63.9254               26.725       
       1264.3214             64.0345               26.562       
        1270.643             64.1386               26.399       
       1276.9962             64.2386               26.238       
       1283.3812             64.3348               26.078       
       1289.7981             64.4275               25.92        
       1296.2471              64.517               25.763       
       1302.7283             64.6035               25.607       
        1309.242             64.6871               25.453       
       1315.7882             64.7681                25.3        
       1322.3671             64.8465               25.148       
        1328.979             64.9226               24.998       
       1335.6239             64.9964               24.849       
        1342.302             65.0681               24.701       
       1349.0135             65.1377               24.554       
       1355.7586             65.2054               24.409       
       1362.5374             65.2713               24.265       
        1369.35              65.3355               24.122       
       1376.1968              65.398               23.981       
       1383.0778             65.4587               23.839       
       1389.9932             65.5176               23.699       
       1396.9431             65.5748               23.56        
       1403.9278             65.6303               23.422       
       1410.9475             65.6843               23.285       
       1418.0022             65.7367               23.15        
       1425.0922             65.7877               23.015       
       1432.2177             65.8373               22.882       
       1439.3788             65.8856               22.75        
       1446.5757             65.9325               22.618       
       1453.8086             65.9782               22.488       
       1461.0776             66.0228               22.359       
        1468.383             66.0662               22.231       
       1475.7249             66.1085               22.104       
       1483.1035             66.1498               21.978       
        1490.519             66.1899               21.852       
       1497.9716             66.2285               21.725       
       1505.4615             66.2658                21.6        
       1512.9888             66.3019               21.476       
       1520.5537             66.3367               21.352       
       1528.1565             66.3703               21.23        
       1535.7973             66.4027               21.108       
       1543.4763              66.434               20.988       
       1551.1937             66.4643               20.868       
       1558.9496             66.4934               20.749       
       1566.7444             66.5216               20.632       
       1574.5781             66.5488               20.515       
        1582.451             66.5749               20.398       
       1590.3633             66.5998               20.282       
       1598.3151             66.6236               20.167       
       1606.3066             66.6464               20.054       
       1614.3382             66.6681               19.94        
       1622.4099             66.6889               19.828       
       1630.5219             66.7086               19.717       
       1638.6745             66.7274               19.606       
       1646.8679             66.7452               19.497       
       1655.1022              66.762               19.388       
       1663.3777             66.7779               19.28        
       1671.6946             66.7929               19.173       
       1680.0531              66.807               19.066       
       1688.4534             66.8202               18.961       
       1696.8956             66.8325               18.856       
       1705.3801             66.8439               18.752       
        1713.907             66.8544               18.649       
       1722.4766             66.8641               18.547       
       1731.0889             66.8728               18.445       
       1739.7444             66.8808               18.344       
       1748.4431             66.8879               18.244       
       1757.1853             66.8941               18.145       
       1765.9712             66.8995               18.046       
       1774.8011              66.904               17.948       
       1783.6751             66.9078               17.851       
       1792.5935             66.9107               17.755       
       1801.5565             66.9127               17.659       
       1810.5642             66.9182               17.564       
       1819.6171             66.9187               17.47        
       1828.7151             66.9183               17.376       
       1837.8587             66.9172               17.283       
        1847.048             66.9152               17.191       
       1856.2833             66.9124                17.1        
       1865.5647             66.9088               17.009       
       1874.8925             66.9044               16.919       
        1884.267             66.8992               16.83        
       1893.6883             66.8931               16.741       
       1903.1567             66.8862               16.653       
       1912.6725             66.8771               16.566       
       1922.2359             66.8686               16.479       
       1931.8471             66.8593               16.393       
       1941.5063             66.8491               16.307       
       1951.2138             66.8381               16.222       
       1960.9699             66.8263               16.138       
       1970.7747             66.8136               16.055       
       1980.6286               66.8                15.972       
       1990.5318             66.7856               15.889       
       2000.4844             66.7703               15.808       
       2010.4868             66.7542               15.727       
       2020.5393             66.7371               15.646       
        2030.642             66.7191               15.566       
       2040.7952             66.7003               15.487       
       2050.9992             66.6805               15.408       
       2061.2542             66.6598               15.33        
       2071.5604             66.6382               15.253       
       2081.9182             66.6156               15.176       
       2092.3278             66.5921               15.099       
       2102.7895             66.5676               15.023       
       2113.3034             66.5422               14.948       
       2123.8699             66.5246               14.873       
       2134.4893             66.4974               14.797       
       2145.1617              66.469               14.723       
       2155.8875             66.4394               14.649       
        2166.667             66.4087               14.575       
       2177.5003             66.3767               14.502       
       2188.3878             66.3436               14.429       
       2199.3297             66.3092               14.357       
       2210.3264             66.2736               14.286       
        2221.378             66.2367               14.215       
       2232.4849             66.1985               14.145       
       2243.6473              66.159               14.075       
       2254.8656             66.1181               14.005       
       2266.1399             66.0759               13.936       
       2277.4706             66.0322               13.868       
       2288.8579              65.987                13.8        
       2300.3022             65.9404               13.732       
       2311.8037             65.8922               13.665       
       2323.3628             65.8425               13.599       
       2334.9796             65.7911               13.533       
       2346.6545             65.7381               13.467       
       2358.3878             65.6834               13.402       
       2370.1797             65.6269               13.338       
       2382.0306             65.5686               13.274       
       2393.9407             65.5084               13.21        
       2405.9104             65.4463               13.147       
        2417.94              65.3789               13.079       
       2430.0297             65.3122               13.009       
       2442.1798             65.2426               12.939       
       2454.3907             65.1702               12.869       
       2466.6627             65.0948                12.8        
        2478.996             65.0164               12.732       
        2491.391             64.9349               12.664       
       2503.8479             64.8501               12.596       
       2516.3672             64.7619               12.529       
        2528.949             64.6703               12.462       
       2541.5938              64.575               12.396       
       2554.3017             64.4758               12.326       
       2567.0732             64.3723               12.256       
       2579.9086             64.2642               12.187       
       2592.8082             64.1514               12.117       
       2605.7722             64.0336               12.049       
       2618.8011             63.9107               11.981       
       2631.8951             63.7824               11.913       
       2645.0545             63.6437               11.846       
       2658.2798             63.5034               11.779       
       2671.5712             63.3567               11.713       
       2684.9291             63.2033               11.647       
       2698.3537             63.0426               11.582       
       2711.8455             62.8742               11.517       
       2725.4047             62.6976               11.453       
       2739.0317             62.5122               11.389       
       2752.7269             62.3173               11.326       
       2766.4905             62.1121               11.263       
        2780.323             61.8959                11.2        
       2794.2246             61.6677               11.138       
       2808.1957             61.4262               11.077       
       2822.2367             61.1704               11.015       
       2836.3479             60.8988               10.955       
       2850.5296             60.6095               10.894       
       2864.7823             60.3008               10.834       
       2879.1062             59.9701               10.775       
       2893.5017             59.6148               10.715       
       2907.9692             59.2313               10.657       
       2922.5091             58.8155               10.598       
       2937.1216             58.3622               10.54        
       2951.8072             57.8647               10.482       
       2966.5662             57.3146               10.425       
       2981.3991             56.7005               10.368       
       2996.3061             56.0066               10.312       
       3011.2876             55.2321               10.238       
        3026.344             54.3068               10.158       
       3041.4758              53.168               10.08        
       3056.6831              51.711               10.002       
       3071.9666             49.7023               9.9252       
       3087.3264             46.4433               9.8489       
        3102.763             35.7559               9.7733       
       3104.0119             31.3348               9.7672       
       3105.7879             31.0702               25.557       
       3118.2768             44.6231               25.384       
       3133.8682             48.2915               25.171       
       3149.5376             50.1566               24.96        
       3165.2853             51.2628               24.751       
       3181.1117             51.8834               24.544       
       3197.0172             52.0846               24.339       
       3213.0023             51.7901               24.135       
       3229.0673             50.6134               23.933       
       3245.2127             45.3623               23.734       
       3247.3832             41.6409               23.707       
       3249.4167             41.5668               34.198       
       3261.4387             50.6437               33.985       
       3277.7459              53.992                33.7        
       3294.1347              56.042               33.417       
       3310.6053             57.5824               33.137       
       3327.1584             58.8377               32.86        
       3343.7941             59.9055               32.584       
       3360.5131             60.8379               32.312       
       3377.3157             61.6663               32.041       
       3394.2023             62.4113               31.773       
       3411.1733             63.0873               31.508       
       3428.2291             63.7045               31.244       
       3445.3703             64.2708               30.983       
       3462.5971              64.792               30.725       
       3479.9101             65.2728               30.468       
       3497.3097             65.7166               30.214       
       3514.7962             66.1264               29.962       
       3532.3702             66.5041               29.711       
       3550.0321             66.8511               29.462       
       3567.7822             67.1685               29.215       
       3585.6211             67.4565               28.97        
       3603.5492             67.7151               28.727       
        3621.567             67.9432               28.487       
       3639.6748             68.1389               28.248       
       3657.8732             68.2989               28.012       
       3676.1626             68.4179               27.778       
       3694.5434             68.4869               27.546       
       3713.0161              68.491               27.315       
       3731.5812             68.4015               27.087       
       3750.2391             68.1565               26.861       
       3768.9903             67.5759               26.637       
       3787.0982             65.5798               26.423       
       3787.8352             65.3467               26.414       
       3796.5019             65.6382               30.799       
       3806.7744             67.4348               30.672       
       3825.8083             68.8565               30.438       
       3844.9373             69.7323               30.207       
        3864.162             70.4017               29.977       
       3883.4828             70.9589               29.75        
       3902.9002             71.4439               29.524       
       3922.4147             71.8775               29.301       
       3942.0268             72.2722               29.079       
       3961.7369             72.6359               28.859       
       3981.5456             72.9742               28.641       
       4001.4533             73.2908               28.424       
       4021.4606             73.5886               28.209       
       4041.5679             73.8699               27.995       
       4061.7757             74.1352               27.778       
       4082.0846             74.3857               27.564       
        4102.495             74.6227               27.351       
       4123.0075              74.847               27.139       
       4143.6226             75.0595               26.93        
       4164.3407             75.2607               26.722       
       4185.1624             75.4511               26.516       
       4206.0882              75.631               26.311       
       4227.1186             75.8005               26.108       
       4248.2542             75.9588               25.903       
       4269.4955             76.1056                25.7        
        4290.843             76.2404               25.499       
       4312.2972             76.3624                25.3        
       4333.8587             76.4705               25.102       
        4355.528             76.5624               24.905       
       4377.3056             76.6349               24.71        
       4399.1921             76.6822               24.517       
       4421.1881             76.6935               24.325       
        4443.294             76.6446               24.135       
       4465.5105             76.4608               23.946       
       4482.9005             75.9322                23.8        
       4487.8381             75.2855               23.758       
       4496.0996             75.9831               25.229       
       4510.2772             76.6248               25.11        
       4532.8286             77.1055               24.922       
       4555.4928             77.4258               24.736       
       4578.2702             77.6788               24.552       
       4601.1616             77.8922               24.368       
       4624.1674             78.0777               24.186       
       4647.2882              78.241               24.005       
       4670.5247             78.3847               23.826       
       4693.8773             78.5094               23.648       
       4717.3467             78.6136               23.471       
       4740.9334              78.693               23.297       
       4764.6381             78.7369               23.124       
       4788.4613              78.714               22.952       
       4811.6809             78.4773               22.787       
       4812.4036             78.4584               22.781       
       4832.3191             78.5884               23.641       
       4836.4656             78.7192               23.612       
       4860.6479             79.1649               23.443       
       4884.9512             79.4489               23.276       
       4909.3759             79.6782               23.111       
       4933.9228             79.8784               22.946       
       4958.5924             80.0593               22.78        
       4983.3854             80.2261               22.616       
       5008.3023             80.3819               22.453       
       5033.3438              80.529               22.291       
       5058.5105             80.6687               22.131       
       5083.8031              80.802               21.971       
       5109.2221             80.9294               21.812       
       5134.7682             81.0516               21.655       
       5160.4421             81.1691               21.499       
       5186.2443             81.2823               21.344       
       5212.1755             81.3916               21.19        
       5238.2364             81.4972               21.038       
       5264.4276             81.5993               20.886       
       5290.7497             81.6983               20.736       
       5317.2034             81.7942               20.587       
       5343.7895             81.8872               20.439       
       5370.5084             81.9775               20.292       
       5397.3609             82.0651               20.146       
       5424.3477             82.1503               20.001       
       5451.4695             82.2332               19.858       
       5478.7268             82.3138               19.715       
       5506.1205             82.3922               19.574       
       5533.6511             82.4686               19.434       
       5561.3193              82.543               19.295       
       5589.1259             82.6155               19.157       
       5617.0716             82.6862               19.02        
       5645.1569             82.7552               18.884       
       5673.3827             82.8224               18.748       
       5701.7496             82.8881               18.614       
       5730.2584             82.9522               18.481       
       5758.9096             83.0148               18.348       
       5787.7042             83.0761               18.217       
       5816.6427             83.1362               18.087       
       5845.7259              83.195               17.957       
       5874.9546             83.2522               17.828       
       5904.3293             83.3077               17.699       
        5933.851             83.3618               17.571       
       5963.5202             83.4144               17.444       
       5993.3378             83.4657               17.318       
       6023.3045             83.5156               17.193       
        6053.421             83.5643               17.069       
       6083.6882             83.6118               16.946       
       6114.1066             83.6581               16.824       
       6144.6771             83.7034               16.703       
       6175.4005             83.7476               16.583       
       6206.2775             83.7908               16.464       
       6237.3089             83.9861               16.343       
       6268.4954              84.027               16.223       
       6299.8379             84.0666               16.103       
       6331.3371             84.1048               15.984       
       6362.9938             84.1418               15.866       
       6394.8088             84.1776               15.749       
       6426.7828             84.2124               15.633       
       6458.9167              84.246               15.518       
       6491.2113             84.2786               15.403       
       6523.6674             84.4154               15.288       
       6556.2857             84.4457               15.174       
       6589.0671             84.4749               15.061       
       6622.0125              84.503               14.948       
       6655.1225              84.53                14.837       
       6688.3981             84.5561               14.726       
       6721.8401             84.5811               14.616       
       6755.4493             84.6052               14.507       
       6789.2266             84.6284               14.399       
       6823.1727             84.6507               14.292       
       6857.2886             84.6721               14.186       
        6891.575             84.6927               14.081       
       6926.0329             84.7125               13.977       
       6960.6631             84.7316               13.873       
       6995.4664             84.7498               13.771       
       7030.4437             84.7674               13.669       
       7065.5959             84.7842               13.568       
       7100.9239             84.8003               13.468       
       7136.4285             84.8158               13.369       
       7172.1107             84.8306               13.27        
       7207.9712             84.8447               13.173       
       7244.0111             84.8583               13.076       
       7280.2311             84.8713               12.98        
       7316.6323             84.8837               12.885       
       7353.2155             84.8955               12.79        
       7389.9815             84.9068               12.697       
       7426.9314             84.9176               12.604       
       7464.0661             84.9279               12.512       
       7501.3864             84.9377               12.421       
       7538.8934              84.947               12.33        
       7576.5878             84.9559               12.241       
       7614.4708             85.0561               12.15        
       7652.5431             85.0643               12.06        
       7690.8058             85.0718               11.971       
       7729.2599             85.0788               11.882       
       7767.9062             85.0853               11.794       
       7806.7457             85.0912               11.707       
       7845.7794             85.0965               11.621       
       7885.0083             85.1014               11.536       
       7924.4334             85.1058               11.451       
       7964.0555             85.1098               11.367       
       8003.8758             85.1133               11.283       
       8043.8952             85.1164               11.201       
       8084.1147             85.1191               11.119       
       8124.5352             85.1214               11.037       
       8165.1579             85.1233               10.957       
       8205.9837             85.1249               10.877       
       8247.0136             85.1262               10.798       
       8288.2487             85.1271               10.719       
       8329.6899             85.1277               10.641       
       8371.3384              85.128               10.564       
       8413.1951             85.1281               10.488       
        8455.261              85.128               10.412       
       8497.5373             85.1276               10.336       
        8540.025             85.1271               10.262       
        9030.794             85.1707               9.4348       
        9653.919             85.1076               8.4372       
        10320.04             84.8921               7.5506       
        11032.12             84.5849               6.7682       
        11793.34             84.1863               6.0735       
        12607.08             83.6659               5.4548       
        13476.97             82.9402               4.9064       
        14406.88             81.7231               4.4059       
        15135.51             79.4783               4.0707       
        15367.18             76.9041               3.9736       
        15400.95             75.8263               3.9598       
        15428.96             73.8766               3.9485       
        15521.62             76.8957               9.8368       
        15753.29             79.5752               9.6041       
        16463.62             81.7385               8.9362       
        17599.61             82.3754               7.9674       
        18114.61             81.8554               7.5791       
        18391.88             80.6326               7.382        
        18465.82             79.1067               7.3308       
        18576.72             80.6413               10.265       
        18813.98             81.8406               10.055       
        18851.97             81.9278               10.022       
        18853.99              81.932               10.02        
        19140.52             82.0105               9.7772       
        19217.46             81.3891               9.7136       
        19332.88             82.3574               11.132       
        19621.43              83.466               10.888       
        20112.15             84.4292               10.488       
        21499.88              85.891               9.4546       
        22983.38             86.7343               8.5164       
        24569.23             87.2884               7.6729       
        26264.5              87.6735               6.9145       
        28076.76             87.9564               6.1939       
        30014.05             88.1213               5.5414       
        32085.02             88.2735               4.9538       
        34298.89             88.3117               4.4274       
        36665.51             88.3147               3.9611       
        39195.43             88.3551               3.5365       
        41899.92              88.308               3.1512       
        44791.01             88.2421                2.81        
        47881.59             88.1644               2.5077       
        51185.42             88.0786               2.2396       
        54717.21              87.987               2.0017       
        58492.7              87.8906               1.7904       
        62528.7              87.7896               1.6026       
        66843.18             87.6832               1.4355       
        71455.36              87.568               1.2843       
        76385.78              87.439                1.15        
        81656.4              87.2913               1.0274       
        87290.69             87.0947              0.91053       
        93313.74             86.7978              0.80675       
        99752.39              86.175              0.71532       
        101843.5             85.6929              0.68916       
        103402.3             84.6943              0.67065       
        103818.0             83.5001              0.66584       
        104441.5             84.7442               3.0084       
        106000.3             85.8317               2.9405       
        106635.3             86.0452               2.9136       
        113993.1             87.1022               2.6266       
        121858.7             87.5403               2.3654       
        130266.9             87.7977               2.1279       
        139255.3             87.9644               1.9137       
        148864.0             88.0774               1.7206       
        159135.6             88.1537               1.545        
        170115.9              88.204               1.3874       
        181853.9             88.2362               1.2459       
        194401.8             88.2551               1.1189       
        207815.6             88.2645               1.0049       
        222154.8             88.2666              0.90294       
        237483.5              88.264              0.81164       
        253869.9             88.2578              0.72965       
        271386.9              88.249              0.65603       
        290112.6             88.2385              0.58989       
        310130.4             88.2269              0.53048       
        331529.4             88.2146               0.4771       
        354404.9              88.202              0.42914       
        378858.8             88.1893              0.38603       
        405000.1             88.1767              0.34728       
        432945.1             88.1645              0.31246       
