# Re
# Form Factors from Chantler Tables
# DOI: https://dx.doi.org/10.18434/T4HS32
# automatically retrived 2019-02-27 using URL https://physics.nist.gov/cgi-bin/ffast/ffast.pl
#
# Z = 75
# f_rel = -1.5033 e/atom  (Relativistic correction estimate)
# f_NT = -0.016572 e/atom (Nuclear Thomson correction)


#        E (eV)            f1 (e/atom)          f2 (e/atom)     
        5.104943             6.39581                0.0         
        5.183079             6.22399                0.0         
        5.203916             6.06267                0.0         
        5.235171              6.1935              0.29128       
        5.313308             6.27314              0.29108       
        5.941418             5.68875              0.29183       
        6.032358             5.20729              0.29392       
        6.056608             4.66114               0.2946       
        6.092984             5.19845               1.353        
        6.183924             5.64768               1.3515       
         10.69               5.27266               3.4278       
        11.42761             5.29226               4.0421       
        12.21612             5.41943               4.7143       
        13.05903             5.67608               5.4183       
        13.9601               6.0766               6.1198       
        14.92335             6.62422               6.7783       
        15.95306             7.32014               7.3518       
        17.05382             8.11734               7.8016       
        18.23053             9.03318               8.0975       
        19.48844             9.93792               8.2213       
        20.83314              10.825               8.169        
        22.27063              11.646               7.9498       
        23.8073               12.356               7.5848       
        25.45001             12.9157               7.1023       
        27.20606             13.2835               6.5331       
        29.08327             13.4089               5.9161       
        31.09002             13.1912               5.2858       
        33.23523             12.1962               4.6699       
         33.908              11.3408               4.4909       
         34.427              9.48514               4.3575       
        34.5654              7.26152               4.3227       
         34.773              9.56931               8.6457       
         35.292              11.5804               8.4385       
        35.52846              12.012               8.3464       
        37.97993             13.7977               7.4692       
         39.788              14.0851               6.8764       
         40.397              13.8521               6.6792       
        40.5594              13.4579               6.6271       
        40.60054             12.3158               7.4507       
         40.803              13.9357               7.3752       
         41.412              14.3817               7.1514       
        43.40198             14.6487               6.459        
         44.688              14.2887               6.0458       
         45.372              13.4221               5.8392       
        45.5544              12.3252               5.7861       
         45.828              13.4803               7.8921       
        46.39671             14.4092               7.7273       
         46.512              14.5135               7.6948       
        49.59809             15.6927               6.9252       
        53.02035             16.1494               6.224        
        56.67876             16.3094               5.5605       
        60.58959             16.2441               4.9727       
        64.77028             15.9999               4.4941       
        69.23942             15.6151               4.1483       
        74.01695             15.1211               3.9512       
        79.12411             14.5397               3.9137       
         81.144              14.2945               3.9429       
         82.386              14.1235               3.9724       
        82.7172              14.0506               3.9817       
         83.214              14.0293               4.0659       
         84.456              13.9194               4.1106       
        84.58368             13.9067               4.1157       
        90.41995             13.2976               4.4316       
        96.65893              12.672               4.9343       
        103.3284             12.0734               5.6326       
        110.4581             11.5404               6.5277       
        118.0797             11.1085               7.6212       
        126.2272             10.7184               8.9002       
        134.9368             10.6211               10.339       
        144.2475             10.7502               11.905       
        154.2005             11.1382               13.559       
        164.8404              11.818               15.249       
        176.2144             12.7984               16.875       
        188.3732             14.0334               18.361       
        201.3709             15.4684               19.667       
        215.2655             17.0427               20.765       
        230.1188             18.6854               21.642       
        245.997              20.2842               22.298       
        254.996              20.9838               22.546       
        258.899              21.0168               22.617       
        259.9398             20.7081               22.633       
        261.501              21.2542               23.451       
        262.9708             21.5754               23.476       
        265.404               21.941               23.512       
        268.226              22.2642               23.548       
        272.3315             22.5202               23.59        
        273.4263             22.3395               23.599       
        275.0685             22.8457               24.223       
        279.174              23.5829               24.248       
        281.1158             23.8558               24.256       
        300.5128              26.038               24.224       
        321.2482             27.8948               24.038       
        343.4143             29.5561               23.74        
        367.1099             31.0382               23.355       
        392.4405             32.3241               22.909       
        419.5189             33.3221               22.423       
        435.512              33.5331               22.138       
        442.178              33.1448               22.021       
        443.9556             32.4487               21.99        
        446.622              33.3164               23.44        
        448.4657             33.6747               23.411       
        453.288              34.2307               23.334       
        479.4098             35.8103               22.929       
         500.0               38.1737               22.62        
         502.5               38.2614               22.582       
        505.0125             38.3446               22.545       
       507.53756             38.4222               22.508       
       510.07525             38.4914               22.471       
       512.62563             38.5464               22.433       
       515.18875             38.5692               22.396       
       517.17493             38.4935               22.367       
        517.7647             38.3234               22.358       
       518.62505             38.5476               22.706       
       520.35352             38.7517               22.682       
       522.95529             38.9309               22.646       
       525.57007             39.0747               22.61        
       528.19792             39.2038               22.574       
       530.83891             39.3248               22.538       
        533.4931             39.4403               22.502       
       536.16057              39.552               22.465       
       538.84137             39.6606               22.429       
       541.53558             39.7667               22.392       
       544.24325             39.8708               22.356       
       546.96447             39.9731               22.319       
       549.69929             40.0738               22.282       
       552.44779              40.173               22.245       
       555.21003             40.2708               22.208       
       557.98608             40.3674               22.171       
       560.77601             40.4628               22.134       
       563.57989              40.557               22.096       
       566.39779             40.6501               22.059       
       569.22978              40.742               22.021       
       572.07593             40.8328               21.984       
        574.9363             40.9224               21.946       
       577.81099             41.0109               21.908       
       580.70004             41.0981               21.87        
       583.60354              41.184               21.831       
       586.52156             41.2685               21.793       
       589.45417             41.3514               21.755       
       592.40144             41.4327               21.716       
       595.36345              41.512               21.677       
       598.34026             41.5891               21.638       
       601.33196             41.6635               21.599       
       604.33862             41.7346               21.56        
       607.36032             41.8015               21.521       
       610.39712             41.8628               21.481       
        613.4491              41.916               21.442       
       616.51635             41.9562               21.402       
       619.59893             41.9716               21.362       
       622.69693             41.9186               21.322       
       624.04375             41.8089               21.304       
       625.81041             41.8323               21.814       
       625.95625             41.8646               21.813       
       628.93946             42.1912               21.775       
       632.08416             42.3815               21.735       
       635.24458             42.5346               21.696       
        638.4208             42.6708               21.656       
       641.61291             42.7972               21.616       
       644.82097             42.9171               21.575       
       648.04508             43.0325               21.535       
        651.2853             43.1444               21.494       
       654.54173             43.2535               21.453       
       657.81444             43.3605               21.412       
       661.10351             43.4656               21.371       
       664.40903             43.5692               21.33        
       667.73107             43.6714               21.288       
       671.06973             43.7725               21.247       
       674.42508             43.8725               21.205       
        677.7972             43.9716               21.163       
       681.18619             44.0699               21.12        
       684.59212             44.1675               21.078       
       688.01508             44.2644               21.036       
       691.45515             44.3607               20.993       
       694.91243             44.4564               20.95        
       698.38699             44.5516               20.907       
       701.87893             44.6463               20.864       
       705.38832             44.7405               20.82        
       708.91526             44.8344               20.777       
       712.45984             44.9278               20.733       
       716.02214             45.0208               20.689       
       719.60225             45.1135               20.645       
       723.20026             45.2059                20.6        
       726.81626              45.298               20.556       
       730.45034             45.3899               20.511       
        734.1026             45.4814               20.466       
       737.77311             45.5728               20.421       
       741.46197              45.664               20.376       
       745.16928              45.755               20.33        
       748.89513             45.8458               20.285       
       752.63961             45.9366               20.238       
        756.4028              46.027               20.191       
       760.18482             46.1171               20.144       
       763.98574             46.2073               20.087       
       767.80567             46.2969               20.016       
        771.6447             46.3852               19.945       
       775.50292             46.4724               19.874       
       779.38044             46.5584               19.803       
       783.27734             46.6603               19.732       
       787.19373             46.7442               19.661       
       791.12969             46.8271               19.589       
       795.08534             46.9089               19.518       
       799.06077             46.9896               19.447       
       803.05607             47.0694               19.376       
       807.07135             47.1481               19.305       
       811.10671             47.2259               19.233       
       815.16224             47.3028               19.162       
       819.23806             47.3787               19.091       
       823.33425             47.4642               19.02        
       827.45092             47.5385               18.949       
       831.58817             47.6119               18.878       
       835.74611             47.6846               18.807       
       839.92484             47.7564               18.736       
       844.12447             47.8274               18.665       
       848.34509             47.8977               18.594       
       852.58682             47.9672               18.523       
       856.84975              48.036               18.452       
        861.134              48.1042               18.381       
       865.43967             48.1717               18.311       
       869.76687             48.2386               18.24        
        874.1157             48.3049               18.169       
       878.48628             48.3706               18.099       
       882.87871             48.4356               18.028       
        887.2931             48.5001               17.957       
       891.72957             48.5641               17.887       
       896.18822             48.6275               17.816       
       900.66916             48.6905               17.746       
        905.1725             48.7531               17.676       
       909.69837             48.8152               17.605       
       914.24686             48.8771               17.535       
       918.81809             48.9386               17.465       
       923.41218             48.9999               17.395       
       928.02924              49.061               17.326       
       932.66939              49.122               17.256       
       937.33274              49.183               17.187       
        942.0194             49.2439               17.117       
        946.7295              49.305               17.048       
       951.46315             49.3663               16.979       
       956.22046             49.4279               16.91        
       961.00156             49.4899               16.842       
       965.80657             49.5525               16.773       
        970.6356             49.6158               16.705       
       975.48878              49.68                16.637       
       980.36623             49.7453               16.568       
       985.26806             49.8119               16.501       
        990.1944             49.8802               16.433       
       995.14537             49.9503               16.365       
       1000.1211             50.0219               16.298       
       1005.1217              50.061               16.208       
       1010.1473             50.0969               16.118       
        1015.198             50.1305               16.03        
        1020.274             50.1623               15.942       
       1025.3754             50.1926               15.854       
       1030.5023             50.2215               15.767       
       1035.6548             50.2493               15.681       
       1040.8331             50.2761               15.595       
       1046.0372             50.3014               15.499       
       1051.2674             50.3249               15.404       
       1056.5238             50.3467               15.309       
       1061.8064             50.3668               15.215       
       1067.1154             50.3853               15.121       
        1072.451             50.4022               15.029       
       1077.8132             50.4177               14.937       
       1083.2023             50.4316               14.846       
       1088.6183             50.4442               14.755       
       1094.0614             50.4554               14.666       
       1099.5317              50.465               14.571       
       1105.0294             50.4729               14.476       
       1110.5545              50.479               14.382       
       1116.1073             50.4833               14.288       
       1121.6878             50.4859               14.195       
       1127.2963             50.4869               14.104       
       1132.9328             50.4862               14.013       
       1138.5974             50.4839               13.922       
       1144.2904             50.4801               13.833       
       1150.0119             50.4747               13.744       
       1155.7619             50.4678               13.656       
       1161.5407             50.4594               13.569       
       1167.3484             50.4495               13.483       
       1173.1852             50.4381               13.397       
       1179.0511             50.4252               13.312       
       1184.9464             50.4109               13.228       
       1190.8711             50.3951               13.144       
       1196.8254             50.3779               13.062       
       1202.8096             50.3593               12.98        
       1208.8236             50.3392               12.898       
       1214.8677             50.3177               12.817       
       1220.9421             50.2948               12.737       
       1227.0468             50.2704               12.658       
        1233.182             50.2446               12.579       
       1239.3479             50.2173               12.501       
       1245.5447             50.1886               12.424       
       1251.7724             50.1584               12.347       
       1258.0312             50.1268               12.271       
       1264.3214             50.0936               12.196       
        1270.643              50.059               12.121       
       1276.9962             50.0229               12.047       
       1283.3812             49.9853               11.973       
       1289.7981             49.9461                11.9        
       1296.2471             49.9054               11.828       
       1302.7283              49.863               11.756       
        1309.242             49.8191               11.685       
       1315.7882             49.7736               11.615       
       1322.3671             49.7263               11.545       
        1328.979             49.6775               11.475       
       1335.6239             49.6284               11.406       
        1342.302             49.5761               11.338       
       1349.0135              49.522               11.27        
       1355.7586             49.4661               11.203       
       1362.5374             49.4083               11.137       
        1369.35              49.3487               11.071       
       1376.1968             49.2871               11.005       
       1383.0778             49.2235               10.94        
       1389.9932             49.1578               10.876       
       1396.9431              49.09                10.812       
       1403.9278             49.0201               10.748       
       1410.9475              48.948               10.685       
       1418.0022             48.8736               10.623       
       1425.0922             48.7969               10.561       
       1432.2177             48.7177                10.5        
       1439.3788              48.636               10.439       
       1446.5757             48.5518               10.378       
       1453.8086             48.4648               10.319       
       1461.0776             48.3751               10.259       
        1468.383             48.2826                10.2        
       1475.7249             48.1871               10.142       
       1483.1035             48.0885               10.084       
        1490.519             47.9867               10.026       
       1497.9716             47.8815               9.9689       
       1505.4615             47.7729               9.9123       
       1512.9888             47.6607               9.8561       
       1520.5537             47.5447               9.8003       
       1528.1565             47.4247               9.745        
       1535.7973             47.3007               9.6901       
       1543.4763             47.1723               9.6356       
       1551.1937             47.0393               9.5816       
       1558.9496             46.9051               9.528        
       1566.7444             46.7624               9.4747       
       1574.5781             46.6145               9.4219       
        1582.451             46.4609               9.3695       
       1590.3633             46.3015               9.3174       
       1598.3151             46.1358               9.2658       
       1606.3066             45.9636               9.2146       
       1614.3382             45.7843               9.1638       
       1622.4099             45.5976               9.1134       
       1630.5219             45.4029               9.0634       
       1638.6745             45.1997               9.0138       
       1646.8679             44.9874               8.9645       
       1655.1022             44.7653               8.9156       
       1663.3777             44.5327               8.8671       
       1671.6946             44.2886               8.819        
       1680.0531             44.0323               8.7712       
       1688.4534             43.7625               8.7238       
       1696.8956             43.4782               8.6768       
       1705.3801             43.1778               8.6301       
        1713.907             42.8598               8.5838       
       1722.4766             42.5224               8.5379       
       1731.0889             42.1634               8.4922       
       1739.7444             41.7802               8.447        
       1748.4431             41.3698               8.402        
       1757.1853             40.9287               8.3574       
       1765.9712             40.4524               8.3132       
       1774.8011             39.9355               8.2693       
       1783.6751             39.3712               8.2243       
       1792.5935             38.7506               8.1791       
       1801.5565             38.0624               8.1342       
       1810.5642             37.2913               8.0896       
       1819.6171             36.4161               8.0454       
       1828.7151             35.4057               8.0015       
       1837.8587             34.2121               7.9579       
        1847.048             32.7551               7.9147       
       1856.2833             30.8827               7.8717       
       1865.5647             28.2448               7.8291       
       1874.8925             23.6363               7.7868       
       1882.5065              6.3685               7.7527       
       1883.2935             6.05504               25.555       
        1884.267             13.0938               25.537       
       1893.6883             24.4712               25.357       
       1903.1567             27.5494               25.179       
       1912.6725             29.0524               25.003       
       1922.2359             29.6683               24.828       
       1931.8471             29.4164               24.654       
       1941.5063             27.4998               24.481       
       1948.1516             19.6941               24.364       
       1949.6484             19.6648               36.07        
       1951.2138             24.0511               36.028       
       1960.9699             31.1633               35.771       
       1970.7747             34.2046               35.515       
       1980.6286             36.3252               35.262       
       1990.5318             38.0003               35.01        
       2000.4844             39.4024               34.76        
       2010.4868             40.6159               34.512       
       2020.5393              41.689               34.266       
        2030.642             42.6523               34.022       
       2040.7952             43.5266               33.779       
       2050.9992             44.3268               33.539       
       2061.2542             45.0641                33.3        
       2071.5604             45.7469               33.063       
       2081.9182             46.3818               32.827       
       2092.3278             46.9742               32.593       
       2102.7895             47.5283               32.36        
       2113.3034             48.0476               32.129       
       2123.8699             48.5352                31.9        
       2134.4893             48.9933               31.673       
       2145.1617              49.424               31.447       
       2155.8875              49.829               31.223       
        2166.667             50.2095               31.001       
       2177.5003             50.5667               30.78        
       2188.3878             50.9012               30.561       
       2199.3297             51.2137               30.344       
       2210.3264             51.5044               30.128       
        2221.378             51.7732               29.914       
       2232.4849             52.0198               29.701       
       2243.6473             52.2434               29.49        
       2254.8656             52.4425               29.281       
       2266.1399             52.6152               29.073       
       2277.4706             52.7583               28.867       
       2288.8579              52.867               28.662       
       2300.3022              52.934               28.459       
       2311.8037             52.9471               28.258       
       2323.3628             52.8855               28.058       
       2334.9796             52.7075               27.859       
       2346.6545             52.3133               27.662       
       2358.3878              51.329               27.466       
       2364.9801             49.4646               27.357       
        2369.62              49.5016                32.0        
       2370.1797             49.8406               31.988       
       2382.0306             52.5668               31.753       
       2393.9407             53.7078               31.519       
       2405.9104             54.5014               31.287       
        2417.94              55.1326               31.057       
       2430.0297              55.667               30.829       
       2442.1798             56.1356               30.603       
       2454.3907             56.5546               30.374       
       2466.6627             56.9319               30.142       
        2478.996             57.2732               29.913       
        2491.391             57.5828               29.695       
       2503.8479             57.8726               29.486       
       2516.3672             58.1446               29.28        
        2528.949             58.3997               29.076       
       2541.5938             58.6382               28.872       
       2554.3017             58.8592               28.667       
       2567.0732             59.0629               28.465       
       2579.9086             59.2488               28.265       
       2592.8082             59.4157               28.066       
       2605.7722             59.5611               27.87        
       2618.8011             59.6808               27.676       
       2631.8951              59.767               27.484       
       2645.0545             59.8035               27.293       
       2658.2798             59.7515               27.104       
       2671.5712             59.4635               26.917       
       2678.0604             58.9517               26.826       
       2684.9291             58.9966               28.579       
       2685.1398             59.0361               28.576       
       2698.3537             60.1491               28.374       
       2711.8455             60.6837               28.171       
       2725.4047             61.0784               27.97        
       2739.0317             61.4054               27.77        
       2752.7269             61.6901               27.572       
       2766.4905             61.9444               27.375       
        2780.323             62.1744               27.18        
       2794.2246             62.3834               26.986       
       2808.1957             62.5725               26.794       
       2822.2367             62.7423               26.612       
       2836.3479             62.8995               26.436       
       2850.5296              63.043               26.263       
       2864.7823             63.1698               26.093       
       2879.1062             63.2748               25.924       
       2893.5017             63.3474               25.757       
       2907.9692             63.3605               25.591       
       2922.5091             63.2012               25.427       
       2925.8366              63.081               25.39        
       2937.1216             63.1838               26.391       
       2937.5634             63.2173               26.386       
       2951.8072             63.8305               26.225       
       2966.5662             64.2004               26.06        
       2981.3991             64.4973               25.896       
       2996.3061             64.7594               25.733       
       3011.2876             64.9992               25.556       
        3026.344             65.2189               25.376       
       3041.4758             65.4241               25.197       
       3056.6831             65.6181               25.02        
       3071.9666              65.803               24.844       
       3087.3264              65.98                24.667       
        3102.763             66.1492               24.491       
       3118.2768             66.3114               24.316       
       3133.8682             66.4675               24.142       
       3149.5376             66.6181               23.969       
       3165.2853             66.7636               23.798       
       3181.1117             66.9043               23.628       
       3197.0172             67.0407               23.459       
       3213.0023              67.173               23.291       
       3229.0673             67.3014               23.125       
       3245.2127             67.4261               22.959       
       3261.4387             67.5473               22.795       
       3277.7459             67.6653               22.631       
       3294.1347              67.78                22.469       
       3310.6053             67.8917               22.308       
       3327.1584             68.0005               22.148       
       3343.7941             68.1065               21.989       
       3360.5131             68.2098               21.832       
       3377.3157             68.3105               21.675       
       3394.2023             68.4087               21.519       
       3411.1733             68.5045               21.365       
       3428.2291              68.598               21.211       
       3445.3703             68.6892               21.059       
       3462.5971             68.7783               20.908       
       3479.9101             68.8653               20.758       
       3497.3097             68.9504               20.608       
       3514.7962             69.0332               20.459       
       3532.3702             69.1141               20.312       
       3550.0321             69.1929               20.165       
       3567.7822             69.2699               20.02        
       3585.6211             69.3451               19.875       
       3603.5492             69.4186               19.732       
        3621.567             69.4904               19.59        
       3639.6748             69.5606               19.449       
       3657.8732             69.6293               19.309       
       3676.1626             69.6965               19.17        
       3694.5434             69.7623               19.033       
       3713.0161             69.8267               18.896       
       3731.5812             69.8899               18.76        
       3750.2391             69.9518               18.626       
       3768.9903              70.217               18.491       
       3787.8352             70.2769               18.351       
       3806.7744             70.3348               18.212       
       3825.8083             70.3908               18.074       
       3844.9373             70.4451               17.937       
        3864.162             70.4976               17.802       
       3883.4828             70.5487               17.668       
       3902.9002             70.7387               17.533       
       3922.4147              70.787               17.396       
       3942.0268             70.8333               17.26        
       3961.7369             70.8778               17.126       
       3981.5456             70.9206               16.992       
       4001.4533             70.9617               16.86        
       4021.4606             71.0013               16.729       
       4041.5679             71.0393                16.6        
       4061.7757              71.076               16.471       
       4082.0846             71.1113               16.344       
        4102.495             71.1453               16.218       
       4123.0075              71.178               16.093       
       4143.6226             71.2096               15.969       
       4164.3407             71.2399               15.847       
       4185.1624             71.2692               15.725       
       4206.0882             71.2974               15.605       
       4227.1186             71.3246               15.485       
       4248.2542             71.3507               15.367       
       4269.4955             71.3759               15.25        
        4290.843             71.4002               15.134       
       4312.2972             71.4236               15.019       
       4333.8587             71.4461               14.905       
        4355.528             71.4677               14.792       
       4377.3056             71.4886               14.68        
       4399.1921             71.5087               14.57        
       4421.1881              71.528               14.46        
        4443.294             71.5466               14.351       
       4465.5105             71.5645               14.243       
       4487.8381             71.5817               14.136       
       4510.2772             71.5983               14.03        
       4532.8286             71.6142               13.925       
       4555.4928             71.6295               13.821       
       4578.2702             71.6443               13.718       
       4601.1616             71.6585               13.616       
       4624.1674             71.6722               13.515       
       4647.2882             71.6854               13.415       
       4670.5247             71.6981               13.315       
       4693.8773             71.7103               13.217       
       4717.3467             71.7221               13.119       
       4740.9334             71.8385               13.021       
       4764.6381             71.8502               12.921       
       4788.4613             71.8611               12.821       
       4812.4036              71.871               12.723       
       4836.4656             71.8802               12.625       
       4860.6479             71.8887               12.528       
       4884.9512             71.8964               12.432       
       4909.3759             71.9035               12.336       
       4933.9228             71.9098               12.241       
       4958.5924             71.9156               12.147       
       4983.3854             71.9207               12.053       
       5008.3023             71.9251               11.961       
       5033.3438              71.929               11.869       
       5058.5105             71.9324               11.778       
       5083.8031             71.9352               11.688       
       5109.2221             71.9375               11.598       
       5134.7682             71.9392               11.51        
       5160.4421             71.9406               11.421       
       5186.2443             71.9414               11.334       
       5212.1755             71.9417               11.247       
       5238.2364             71.9416               11.161       
       5264.4276             71.9411               11.076       
       5290.7497             71.9401               10.991       
       5317.2034             71.9388               10.907       
       5343.7895              71.937               10.824       
       5370.5084             71.9807               10.742       
       5397.3609             71.9786               10.658       
       5424.3477             71.9759               10.575       
       5451.4695             71.9727               10.493       
       5478.7268             71.9689               10.411       
       5506.1205             71.9646               10.33        
       5533.6511             71.9598               10.25        
       5561.3193             71.9544               10.171       
       5589.1259             71.9487               10.093       
       5617.0716             71.9425               10.015       
       5645.1569             71.9358               9.9374       
       5673.3827             71.9287               9.8608       
       5701.7496             71.9213               9.785        
       5730.2584             71.9134               9.7098       
       5758.9096             71.9051               9.6353       
       5787.7042             71.8965               9.5614       
       5816.6427             71.8875               9.4882       
       5845.7259             71.8782               9.4157       
       5874.9546             71.8871               9.3434       
       5904.3293             71.8773               9.2714       
        5933.851              71.867                9.2         
       5963.5202             71.8563               9.1292       
       5993.3378             71.8452               9.059        
       6023.3045             71.8337               8.9894       
        6053.421             71.8219               8.9205       
       6083.6882             71.8096               8.8522       
       6114.1066             71.7971               8.7844       
       6144.6771             71.7841               8.7173       
       6175.4005             71.7708               8.6507       
       6206.2775             71.7572               8.5847       
       6237.3089             71.7432               8.5193       
       6268.4954             71.7289               8.4544       
       6299.8379             71.7143               8.3902       
       6331.3371             71.6994               8.3264       
       6362.9938             71.6841               8.2633       
       6394.8088             71.6685               8.2007       
       6426.7828             71.6526               8.1386       
       6458.9167             71.6363               8.077        
       6491.2113             71.6198               8.016        
       6523.6674             71.6029               7.9556       
       6556.2857             71.5857               7.8956       
       6589.0671             71.5683               7.8362       
       6622.0125             71.5505               7.7772       
       6655.1225             71.5324               7.7188       
       6688.3981             71.5139               7.6609       
       6721.8401             71.4952               7.6035       
       6755.4493             71.4762               7.5466       
       6789.2266             71.4568               7.4901       
       6823.1727             71.4371               7.4342       
       6857.2886             71.4172               7.3787       
        6891.575             71.3969               7.3237       
       6926.0329             71.3762               7.2692       
       6960.6631             71.3553               7.2151       
       6995.4664              71.334               7.1615       
       7030.4437             71.3124               7.1084       
       7065.5959             71.2905               7.0557       
       7100.9239             71.2683               7.0034       
       7136.4285             71.2457               6.9516       
       7172.1107             71.2227               6.9003       
       7207.9712             71.1994               6.8494       
       7244.0111             71.1758               6.7989       
       7280.2311             71.1518               6.7488       
       7316.6323             71.1275               6.6992       
       7353.2155             71.1027                6.65        
       7389.9815             71.0776               6.6011       
       7426.9314             71.0521               6.5528       
       7464.0661             71.0262               6.5048       
       7501.3864               71.0                6.4572       
       7538.8934             70.9733                6.41        
       7576.5878             70.9462               6.3632       
       7614.4708             70.9186               6.3169       
       7652.5431             70.8907               6.2709       
       7690.8058             70.8622               6.2252       
       7729.2599             70.8334                6.18        
       7767.9062              70.804               6.1352       
       7806.7457             70.7742               6.0907       
       7845.7794             70.7439               6.0466       
       7885.0083              70.713               6.0028       
       7924.4334             70.6817               5.9595       
       7964.0555             70.6498               5.9165       
       8003.8758             70.6173               5.8738       
       8043.8952             70.5843               5.8315       
       8084.1147             70.5507               5.7896       
       8124.5352             70.5164               5.748        
       8165.1579             70.4816               5.7065       
       8205.9837              70.446               5.6644       
       8247.0136             70.4097               5.6227       
       8288.2487             70.3726               5.5813       
       8329.6899             70.3347               5.5403       
       8371.3384             70.2959               5.4994       
       8413.1951             70.2562               5.4588       
        8455.261             70.2157               5.4183       
       8497.5373             70.1741               5.3776       
        8540.025             70.1315               5.3372       
        9030.794             69.6381               4.8913       
        9653.919             68.5353               4.3617       
        10320.04             65.6674               3.8942       
        10324.59             65.6244               3.8912       
        10482.62             62.8399               3.7895       
        10524.76              59.587               3.7631       
        10587.98              62.814               10.075       
        10746.01             65.6471               9.8178       
        11032.12             67.2448               9.3788       
        11719.53             67.6542               8.4363       
        11793.34             67.3841               8.3432       
        11898.91             66.4793               8.2128       
        11946.74             64.8867               8.1547       
        12018.49              66.573               11.272       
        12197.87             68.0807               10.988       
        12276.17             68.3474               10.867       
        12464.07             68.3508               10.586       
        12514.17             67.6623               10.513       
        12589.33             68.7093               12.059       
        12607.08             68.8899               12.033       
        12777.23              69.911               11.785       
        13476.97             71.8024               10.844       
        14406.88             73.0764               9.7497       
        15400.95             73.8716               8.7608       
        16463.62             74.4047               7.8621       
        17599.61             74.7592               7.0514       
        18813.98             74.9938               6.3267       
        20112.15             75.1456               5.6795       
        21499.88             75.3012               5.098        
        22983.38             75.3469               4.5723       
        24569.23             75.3954               4.1022       
        26264.5              75.4193               3.6772       
        28076.76             75.3939               3.2705       
        30014.05             75.3316               2.9034       
        32085.02              75.252               2.5796       
        34298.89             75.1615               2.2939       
        36665.51             75.0638               2.0415       
        39195.43             74.9608               1.8183       
        41899.92             74.8531               1.6208       
        44791.01             74.7403               1.4457       
        47881.59             74.6201               1.2884       
        51185.42             74.4871               1.1483       
        54717.21             74.3343               1.0222       
        58492.7              74.1439              0.90681       
        62528.7              73.8796              0.80487       
        66843.18             73.4235              0.71433       
        70242.87             72.5172               0.654        
        71318.02             71.4235              0.63662       
        71455.36             71.0332              0.63445       
        71604.72             70.1142              0.63211       
        72034.78             71.4371               3.2029       
        73109.93              72.632               3.1325       
        76385.78             73.6992               2.9282       
        81656.4              74.3552               2.6232       
        87290.69             74.7028               2.352        
        93313.74              74.925               2.1121       
        99752.39             75.0733               1.8873       
        106635.3             75.1704               1.6866       
        113993.1             75.2342               1.5075       
        121858.7             75.2751               1.3476       
        130266.9             75.2997               1.2048       
        139255.3             75.3128               1.0772       
        148864.0             75.3443              0.96158       
        159135.6             75.3404              0.85722       
        170115.9             75.3313              0.76426       
        181853.9             75.3187              0.68146       
        194401.8             75.3038              0.60768       
        207815.6             75.2875              0.54194       
        222154.8             75.2704              0.48335       
        237483.5              75.253              0.43114       
        253869.9             75.2356               0.3846       
        271386.9             75.2184              0.34311       
        290112.6             75.2015              0.30612       
        310130.4             75.1849              0.27314       
        331529.4             75.1693              0.24564       
        354404.9             75.1553              0.22097       
        378858.8             75.1425              0.19879       
        405000.1             75.1308              0.17886       
        432945.1             75.1199              0.16093       
