# Rn
# Form Factors from Chantler Tables
# DOI: https://dx.doi.org/10.18434/T4HS32
# automatically retrived 2019-02-27 using URL https://physics.nist.gov/cgi-bin/ffast/ffast.pl
#
# Z = 86
# f_rel = -2.1548 e/atom  (Relativistic correction estimate)
# f_NT = -0.018276 e/atom (Nuclear Thomson correction)


#        E (eV)            f1 (e/atom)          f2 (e/atom)     
        6.983358            -0.140095               0.0         
        7.090247             -3.65878               0.0         
        7.11875              -7.81185               0.0         
        7.161505             -3.56804              8.1423       
        7.268393             0.118324              8.0559       
        10.36116             5.66085               6.1586       
        10.51975             3.81936               6.0731       
        10.56204             1.52197               6.0503       
        10.62547             3.94006               10.589       
         10.69               5.17172               10.549       
        10.78406             6.12627               10.49        
        11.42761             8.74822               10.095       
        12.21612             10.2947               9.6193       
        13.05903             11.4147               9.1051       
        13.9601              12.2984               8.5549       
        14.92335             13.0077               7.9757       
        15.95306              13.569               7.3766       
        17.05382              13.995               6.7681       
        18.23053             14.2914               6.1609       
        19.48844             14.4558               5.5654       
        20.83314             14.4536               4.9909       
        21.50088             14.3221               4.7288       
        21.82997             14.0652               4.6051       
        21.91773             13.7421               4.5727       
        22.04937             14.0981               5.1661       
        22.27063             14.3434                5.06        
        22.37846             14.4059               5.0094       
        23.8073              14.6485               4.398        
        25.45001             14.5702               3.8144       
        27.20606             14.3338               3.305        
        29.08327             13.9752               2.8602       
        31.09002             13.4979               2.4732       
        33.23523             12.8882               2.1375       
        35.52846             12.1116               1.8474       
        37.97993             11.1011               1.5975       
        40.60054             9.71476               1.3831       
        43.40198              7.5025               1.1998       
        44.03377             6.61733               1.1638       
        44.21079             6.06317               1.154        
        44.47632             6.11258               1.9003       
        45.14014             5.70144               2.0626       
        46.39671             4.46382               2.5115       
        47.71733             2.86062               3.256        
        48.44769             1.73346               3.831        
        48.64246             1.20154               4.0084       
        48.93461             1.09802               4.8805       
        49.59809             0.548964              5.7157       
        49.66497             0.487096              5.8056       
        53.02035             -1.93666              11.563       
        56.67876             -1.22725              19.562       
        60.58959             3.88824               26.915       
        64.77028             12.0963               30.979       
        69.23942             20.7994               30.837       
        74.01695              27.79                27.401       
        79.12411             32.1498               22.374       
        84.58368             34.0728               17.225       
        90.41995             34.2577               12.783       
        96.65893             33.4211               9.3169       
        103.3284             32.0793               6.7727       
        110.4581             30.4937                4.97        
        116.4403             28.9252               3.9417       
        118.0797             28.1442               3.7156       
        118.2225              28.025               3.6969       
        118.6978             27.2188               3.6356       
        119.4107             27.8741               4.983        
        121.1929             28.2651               4.7285       
        126.2272             28.0674               4.1171       
        134.9368             27.1812               3.3446       
        144.2475             26.1099               2.8039       
        148.7358             25.4432               2.6129       
        151.0123             24.8184               2.5291       
        151.6194              24.244               2.508        
        152.5301             24.7286               3.5104       
        154.2005             24.9993               3.4236       
        154.8066             25.0287               3.3934       
        164.8404             24.7151               2.9726       
        176.2144              23.965               2.6352       
        188.3732              23.016               2.3872       
        196.8143              22.251               2.2627       
        199.8268              21.909               2.2257       
        200.6301             21.7529               2.2165       
        201.3709             21.7327               2.3672       
        201.8351             21.7199               2.3624       
        204.8475             21.4941               2.3331       
        208.3358             21.1551               2.3028       
        211.5247             20.7692               2.2781       
        212.375              20.5986               2.2719       
        213.6505             20.5293               2.424        
        215.2655             20.3888               2.4306       
        216.8393             20.2233               2.4393       
        218.5326             20.0163               2.4512       
        219.4112             19.8639               2.4584       
        220.7289             19.7713               2.5887       
        224.0234             19.4461               2.6548       
        230.1188             18.7511               2.8285       
        245.997              16.7587               3.6929       
        262.9708             14.6405               5.3284       
        281.1158             12.7195               7.8484       
        300.5128             11.3765               11.196       
        321.2482             10.9309               15.124       
        343.4143             11.5467               19.26        
        367.1099             13.1988               23.215       
        392.4405             15.7191               26.664       
        419.5189             18.8335               29.399       
        448.4657             22.2323               31.33        
        479.4098             25.5879               32.465       
         500.0               29.5309               32.803       
         502.5               29.7362               32.825       
        505.0125             29.9351               32.843       
       507.53756             30.1269               32.858       
       510.07525             30.3105               32.87        
       512.62563             30.4844               32.878       
       515.18875             30.6471               32.882       
        517.7647              30.796               32.884       
       520.35352              30.928               32.881       
       522.95529              31.038               32.876       
       525.57007             31.1182               32.867       
       528.19792             31.1544               32.855       
       530.83891             31.1176               32.84        
        533.4931             30.9285               32.822       
       536.16057             30.1218               32.801       
       536.62464             29.5906               32.797       
       537.37536             29.6396               34.991       
       538.84137             30.8512               34.99        
       541.53558             31.6665               34.986       
       544.24325              32.176               34.979       
       546.96447             32.5751               34.969       
       549.69929             32.9118               34.958       
       552.44779             33.2033               34.943       
       555.21003             33.4546               34.926       
       557.98608             33.6619               34.907       
       560.77601             33.8074               34.886       
       563.57989             33.8277               34.862       
       566.20227             33.2339               34.838       
       566.39779             32.9664               34.836       
       566.99778             33.3106               36.163       
       569.22978             34.3287               36.153       
       572.07593             34.9154               36.137       
        574.9363             35.3665               36.12        
       577.81099             35.7617               36.101       
       580.70004             36.1253               36.081       
       583.60354             36.4681               36.058       
       586.52156             36.7957               36.034       
       589.45417             37.1118               36.008       
       592.40144             37.4186               35.981       
       595.36345             37.7178               35.951       
       598.34026             38.0104               35.92        
       601.33196             38.2972               35.887       
       604.33862             38.5799               35.852       
       607.36032             38.8567               35.815       
       610.39712             39.1291               35.776       
        613.4491             39.3975               35.735       
       616.51635             39.6621               35.693       
       619.59893             39.9233               35.649       
       622.69693             40.1811               35.604       
       625.81041             40.4359               35.557       
       628.93946             40.6877               35.508       
       632.08416             40.9366               35.457       
       635.24458             41.1827               35.404       
        638.4208             41.3791               35.35        
       641.61291             41.6194               35.293       
       644.82097             41.8566               35.235       
       648.04508              42.091               35.175       
        651.2853             42.3224               35.113       
       654.54173              42.551               35.049       
       657.81444             42.7766               34.984       
       661.10351             42.9767               34.918       
       664.40903             43.1965               34.849       
       667.73107             43.4133               34.78        
       671.06973             43.6272               34.709       
       674.42508              43.838               34.636       
        677.7972             44.0458               34.562       
       681.18619             44.2505               34.487       
       684.59212             44.4519               34.411       
       688.01508             44.6501               34.333       
       691.45515              44.845               34.254       
       694.91243             45.0363               34.174       
       698.38699              45.224               34.092       
       701.87893             45.4079               34.01        
       705.38832             45.5879               33.927       
       708.91526             45.7637               33.842       
       712.45984              45.935               33.756       
       716.02214             46.1016               33.67        
       719.60225             46.2634               33.582       
       723.20026             46.4192               33.493       
       726.81626             46.5686               33.403       
       730.45034             46.7106               33.312       
        734.1026             46.8442               33.221       
       737.77311             46.9678               33.128       
       741.46197             47.0795               33.035       
       745.16928              47.176               32.941       
       748.89513             47.2528               32.847       
       752.63961             47.3017               32.752       
        756.4028             47.3079               32.656       
       760.18482             47.2386               32.56        
       763.98574             46.9914               32.463       
       766.74817             46.3685               32.392       
       767.80567             45.2125               32.365       
       769.25185             46.4868               34.363       
        771.6447             47.2908               34.303       
       775.50292             47.9373               34.206       
       779.38044             48.3848               34.109       
       783.27734             48.7516               34.012       
       787.19373             49.0741               33.914       
       791.12969             49.3681               33.815       
       795.08534             49.6421               33.717       
       799.06077              49.901               33.618       
       803.05607             50.1481               33.519       
       807.07135             50.3857               33.419       
       811.10671             50.6152               33.32        
       815.16224             50.8379               33.22        
       819.23806             51.0546               33.12        
       823.33425             51.2662               33.02        
       827.45092              51.473               32.92        
       831.58817             51.6756               32.82        
       835.74611             51.8744               32.719       
       839.92484             52.0697               32.618       
       844.12447             52.2617               32.517       
       848.34509             52.4507               32.416       
       852.58682             52.6369               32.315       
       856.84975             52.8203               32.214       
        861.134              53.0013               32.113       
       865.43967             53.1797               32.012       
       869.76687             53.3559               31.91        
        874.1157             53.5297               31.809       
       878.48628             53.7013               31.708       
       882.87871             53.8706               31.607       
        887.2931             54.0377               31.506       
       891.72957             54.2024               31.405       
       896.18822             54.3645               31.304       
       900.66916             54.5238               31.204       
        905.1725             54.6795               31.103       
       909.69837             54.8299               30.998       
       914.24686              54.971               30.888       
       918.81809             55.0973               30.778       
       923.41218             55.1925               30.668       
       927.41143             55.1769               30.572       
       928.02924             55.1352               30.558       
       930.58861             55.2949               30.911       
       932.66939             55.4822               30.862       
       937.33274             55.7633               30.754       
        942.0194              55.996               30.646       
        946.7295             56.2118               30.539       
       951.46315             56.4197               30.432       
       956.22046             56.6239               30.325       
       961.00156             56.8263               30.214       
       965.80657             57.0283               30.102       
        970.6356             57.2318               29.991       
       975.48878             57.4383               29.879       
       980.36623              57.65                29.768       
       985.26806             57.8693               29.657       
        990.1944             58.0996               29.547       
       995.14537             58.3452               29.438       
       1000.1211             58.6103               29.327       
       1005.1217             58.7658               29.144       
       1010.1473             58.9081               28.963       
        1015.198             59.0411               28.784       
        1020.274             59.1666               28.605       
       1025.3754             59.2858               28.429       
       1030.5023             59.3992               28.253       
       1035.6548             59.5072               28.079       
       1040.8331             59.6099               27.906       
       1046.0372             59.7075               27.735       
       1051.2674             59.7997               27.565       
       1056.5238             59.8863               27.397       
       1061.8064             59.9668               27.23        
       1067.1154             60.0404               27.064       
        1072.451             60.1053               26.899       
       1077.8132              60.159               26.736       
       1083.2023             60.1956               26.574       
       1088.6183             60.2002               26.414       
       1094.0614             60.1063               26.255       
       1095.6507             59.9958               26.208       
       1098.3493             60.0526               26.68        
       1099.5317             60.1813               26.646       
       1105.0294             60.4681               26.489       
       1110.5545             60.6426               26.334       
       1116.1073             60.7835               26.18        
       1121.6878             60.9072               26.027       
       1127.2963              61.02                25.875       
       1132.9328             61.1249               25.724       
       1138.5974             61.2238               25.575       
       1144.2904             61.3177               25.427       
       1150.0119             61.4074               25.28        
       1155.7619             61.4935               25.134       
       1161.5407             61.5764               24.99        
       1167.3484             61.6564               24.847       
       1173.1852             61.7338               24.704       
       1179.0511             61.8087               24.563       
       1184.9464             61.8813               24.423       
       1190.8711             61.9518               24.285       
       1196.8254             62.0202               24.147       
       1202.8096             62.0867               24.01        
       1208.8236             62.1515               23.875       
       1214.8677             62.2144               23.74        
       1220.9421             62.2758               23.607       
       1227.0468             62.3355               23.475       
        1233.182             62.3937               23.344       
       1239.3479             62.4505               23.213       
       1245.5447             62.5058               23.084       
       1251.7724             62.5598               22.956       
       1258.0312             62.6125               22.829       
       1264.3214              62.664               22.703       
        1270.643             62.7142               22.578       
       1276.9962             62.7634               22.454       
       1283.3812             62.8114               22.331       
       1289.7981             62.8584               22.208       
       1296.2471             62.9044               22.087       
       1302.7283             62.9493               21.965       
        1309.242             62.9927               21.844       
       1315.7882             63.0349               21.723       
       1322.3671             63.0758               21.603       
        1328.979             63.1156               21.484       
       1335.6239             63.1542               21.366       
        1342.302             63.1916               21.249       
       1349.0135              63.228               21.133       
       1355.7586             63.2633               21.018       
       1362.5374             63.2976               20.903       
        1369.35              63.3309               20.79        
       1376.1968             63.3632               20.677       
       1383.0778             63.3945               20.565       
       1389.9932             63.4249               20.454       
       1396.9431             63.4544               20.344       
       1403.9278              63.483               20.235       
       1410.9475             63.5108               20.126       
       1418.0022             63.5377               20.019       
       1425.0922             63.5638               19.912       
       1432.2177             63.5891               19.805       
       1439.3788             63.6134               19.699       
       1446.5757             63.6368               19.594       
       1453.8086             63.6593               19.49        
       1461.0776              63.681               19.387       
        1468.383             63.7018               19.284       
       1475.7249             63.7218               19.182       
       1483.1035              63.741               19.081       
        1490.519             63.7594               18.981       
       1497.9716              63.777               18.881       
       1505.4615             63.7939               18.782       
       1512.9888             63.8099               18.684       
       1520.5537             63.8253               18.586       
       1528.1565             63.8399               18.49        
       1535.7973             63.8538               18.394       
       1543.4763              63.867               18.298       
       1551.1937             63.8795               18.204       
       1558.9496             63.8914               18.11        
       1566.7444             63.9026               18.017       
       1574.5781             63.9131               17.923       
        1582.451             63.9227               17.83        
       1590.3633             63.9314               17.738       
       1598.3151             63.9394               17.646       
       1606.3066             63.9465               17.555       
       1614.3382             63.9794               17.465       
       1622.4099             63.9851               17.375       
       1630.5219              63.99                17.286       
       1638.6745             63.9942               17.197       
       1646.8679             63.9976               17.11        
       1655.1022             64.0002               17.022       
       1663.3777             64.0021               16.936       
       1671.6946             64.0032               16.85        
       1680.0531             64.0036               16.764       
       1688.4534             64.0032               16.68        
       1696.8956              64.002               16.595       
       1705.3801             64.0179               16.512       
        1713.907             64.0154               16.429       
       1722.4766             64.0121               16.346       
       1731.0889             64.0081               16.265       
       1739.7444             64.0033               16.183       
       1748.4431             63.9977               16.103       
       1757.1853             63.9914               16.023       
       1765.9712             63.9843               15.943       
       1774.8011             63.9764               15.864       
       1783.6751             63.9677               15.786       
       1792.5935             63.9583               15.708       
       1801.5565             63.9481               15.631       
       1810.5642              63.937               15.554       
       1819.6171             63.9252               15.478       
       1828.7151             63.9126               15.402       
       1837.8587             63.8991               15.327       
        1847.048             63.8849               15.252       
       1856.2833             63.8698               15.178       
       1865.5647             63.8538               15.105       
       1874.8925              63.837               15.031       
        1884.267             63.8194               14.959       
       1893.6883             63.8009               14.887       
       1903.1567             63.7815               14.815       
       1912.6725             63.7612               14.744       
       1922.2359             63.7399               14.674       
       1931.8471             63.7178               14.604       
       1941.5063             63.6948               14.534       
       1951.2138             63.6708               14.465       
       1960.9699             63.6458               14.396       
       1970.7747             63.6198               14.328       
       1980.6286             63.5929               14.261       
       1990.5318             63.5649               14.193       
       2000.4844              63.536               14.127       
       2010.4868             63.5059               14.06        
       2020.5393             63.4748               13.995       
        2030.642             63.4426               13.929       
       2040.7952             63.4093               13.864       
       2050.9992             63.3749                13.8        
       2061.2542             63.3393               13.736       
       2071.5604             63.3025               13.672       
       2081.9182             63.2646               13.609       
       2092.3278             63.2254               13.547       
       2102.7895             63.1849               13.484       
       2113.3034             63.1432               13.422       
       2123.8699             63.1002               13.361       
       2134.4893             63.0558                13.3        
       2145.1617              63.01                13.24        
       2155.8875             62.9627               13.173       
        2166.667             62.9132               13.105       
       2177.5003             62.8616               13.037       
       2188.3878             62.8078               12.97        
       2199.3297             62.7472               12.902       
       2210.3264              62.689               12.836       
        2221.378             62.6284               12.769       
       2232.4849             62.5654               12.703       
       2243.6473               62.5                12.637       
       2254.8656             62.4319               12.572       
       2266.1399             62.3613               12.507       
       2277.4706             62.2877               12.437       
       2288.8579             62.2108               12.367       
       2300.3022             62.1306               12.298       
       2311.8037             62.0527               12.229       
       2323.3628             61.9656               12.16        
       2334.9796             61.8747               12.093       
       2346.6545             61.7801               12.025       
       2358.3878             61.6816               11.958       
       2370.1797             61.5789               11.892       
       2382.0306              61.472               11.826       
       2393.9407             61.3607               11.76        
       2405.9104             61.2447               11.695       
        2417.94              61.1238               11.63        
       2430.0297             60.9978               11.566       
       2442.1798             60.8664               11.502       
       2454.3907             60.7293               11.439       
       2466.6627             60.5863               11.376       
        2478.996             60.4369               11.314       
        2491.391             60.2808               11.252       
       2503.8479             60.1175               11.19        
       2516.3672             59.9466               11.129       
        2528.949             59.7675               11.068       
       2541.5938             59.5797               11.008       
       2554.3017             59.3825               10.948       
       2567.0732             59.1752               10.889       
       2579.9086             58.9569               10.829       
       2592.8082             58.7268               10.771       
       2605.7722             58.4837               10.713       
       2618.8011             58.2264               10.655       
       2631.8951             57.9537               10.597       
       2645.0545             57.6637               10.54        
       2658.2798             57.3547               10.483       
       2671.5712             57.0244               10.427       
       2684.9291             56.6701               10.371       
       2698.3537             56.2888               10.316       
       2711.8455             55.8765               10.261       
       2725.4047             55.4284               10.206       
       2739.0317             54.9385               10.151       
       2752.7269             54.3992               10.097       
       2766.4905             53.8004               10.044       
        2780.323             53.1286               9.9905       
       2794.2246             52.3638               9.9375       
       2808.1957             51.4805               9.885        
       2822.2367             50.4349               9.8328       
       2836.3479             49.1554               9.7809       
       2850.5296             47.5069               9.7294       
       2864.7823             45.1815               9.6781       
       2879.1062             41.1545               9.6271       
       2891.5873             25.9768               9.5831       
       2893.5017             27.3618               26.619       
       2907.9692             41.6766               26.336       
       2922.5091             45.0424               26.056       
       2937.1216             46.8582               25.78        
       2951.8072             47.9339               25.507       
       2966.5662             48.4939               25.238       
       2981.3991             48.5621               24.972       
       2996.3061             47.9571               24.709       
       3011.2876             45.8173               24.433       
       3020.5816             38.0654               24.261       
       3022.4186             37.9935               35.05        
        3026.344             43.9426               34.954       
       3041.4758             49.5564               34.602       
       3056.6831             52.1432               34.275       
       3071.9666              53.955               33.954       
       3087.3264             55.3834               33.637       
        3102.763             56.5745               33.327       
       3118.2768             57.6004               33.022       
       3133.8682             58.5025               32.722       
       3149.5376             59.3073               32.428       
       3165.2853             60.0326               32.138       
       3181.1117             60.6914               31.854       
       3197.0172             61.2932               31.574       
       3213.0023             61.8451               31.299       
       3229.0673             62.3529               31.029       
       3245.2127             62.8209               30.762       
       3261.4387             63.2527               30.499       
       3277.7459             63.6508               30.241       
       3294.1347             64.0174               29.986       
       3310.6053             64.3539               29.734       
       3327.1584             64.6613               29.486       
       3343.7941              64.94                29.242       
       3360.5131             65.1898               29.001       
       3377.3157             65.4097               28.762       
       3394.2023             65.5976               28.527       
       3411.1733             65.7504               28.295       
       3428.2291             65.8626               28.065       
       3445.3703             65.9253               27.839       
       3462.5971             65.9236               27.614       
       3479.9101             65.8294               27.393       
       3497.3097              65.583               27.174       
       3514.7962             65.0178               26.957       
       3532.3702             63.1454               26.742       
       3533.7899             62.7247               26.725       
       3542.2103             62.7987               31.431       
       3550.0321             64.5407               31.315       
       3567.7822              66.205               31.054       
       3585.6211             67.1795               30.796       
       3603.5492             67.9089               30.541       
        3621.567             68.5076               30.288       
       3639.6748             69.0227               30.037       
       3657.8732             69.4782               29.788       
       3676.1626             69.8877               29.542       
       3694.5434             70.2597               29.298       
       3713.0161             70.5984               29.057       
       3731.5812             70.9125               28.834       
       3750.2391             71.2108               28.613       
       3768.9903             71.4936               28.39        
       3787.8352             71.7594               28.164       
       3806.7744             72.0095               27.941       
       3825.8083             72.2452               27.72        
       3844.9373             72.4675               27.502       
        3864.162             72.6771               27.286       
       3883.4828             72.8747               27.073       
       3902.9002             73.0606               26.862       
       3922.4147             73.2351               26.653       
       3942.0268             73.3978               26.445       
       3961.7369              73.548               26.237       
       3981.5456             73.6851               26.032       
       4001.4533             73.8082               25.829       
       4021.4606             73.9157               25.627       
       4041.5679             74.0049               25.427       
       4061.7757             74.0715               25.229       
       4082.0846             74.1077               25.033       
        4102.495             74.0981               24.838       
       4123.0075             74.0053               24.646       
       4143.6226             73.6876               24.454       
       4153.2189             73.2146               24.366       
       4164.3407             73.2317               26.017       
       4164.7809             73.2794               26.012       
       4185.1624             74.2703               25.805       
       4206.0882             74.7351               25.595       
       4227.1186             75.0676               25.388       
       4248.2542             75.3355               25.182       
       4269.4955             75.5626               24.978       
        4290.843             75.7598               24.776       
       4312.2972             75.9326               24.576       
       4333.8587             76.0833               24.378       
        4355.528             76.2121               24.181       
       4377.3056             76.3179               23.993       
       4399.1921             76.4025               23.811       
       4421.1881             76.4572               23.631       
        4443.294              76.46                23.454       
       4465.5105             76.3275               23.278       
       4472.9462             76.1801               23.22        
       4487.8381             76.1223               24.123       
       4491.0535             76.2843               24.098       
       4510.2772             76.7693               23.95        
       4532.8286             77.0907               23.78        
       4555.4928              77.338               23.611       
       4578.2702             77.5502               23.444       
       4601.1616             77.7414               23.278       
       4624.1674             77.9167               23.109       
       4647.2882             78.0797               22.941       
       4670.5247             78.2329               22.774       
       4693.8773              78.378               22.61        
       4717.3467             78.5163               22.446       
       4740.9334             78.6483               22.284       
       4764.6381             78.7748               22.123       
       4788.4613             78.8963               21.963       
       4812.4036             79.0133               21.804       
       4836.4656             79.1262               21.647       
       4860.6479             79.2353               21.492       
       4884.9512             79.3409               21.338       
       4909.3759             79.4432               21.185       
       4933.9228             79.5424               21.033       
       4958.5924             79.6387               20.883       
       4983.3854             79.7323               20.734       
       5008.3023             79.8233               20.586       
       5033.3438             79.9118               20.44        
       5058.5105              79.998               20.295       
       5083.8031             80.0821               20.151       
       5109.2221              80.164               20.008       
       5134.7682             80.2439               19.866       
       5160.4421             80.3219               19.726       
       5186.2443             80.3981               19.586       
       5212.1755             80.4726               19.448       
       5238.2364             80.5454               19.311       
       5264.4276             80.6167               19.175       
       5290.7497             80.6866               19.04        
       5317.2034             80.7551               18.906       
       5343.7895             80.8225               18.774       
       5370.5084             80.8887               18.642       
       5397.3609              80.954               18.511       
       5424.3477             81.0181               18.379       
       5451.4695             81.0803               18.247       
       5478.7268             81.1406               18.115       
       5506.1205             81.1993               17.984       
       5533.6511             81.2564               17.855       
       5561.3193              81.312               17.726       
       5589.1259             81.3662               17.599       
       5617.0716             81.4191               17.472       
       5645.1569             81.4706               17.346       
       5673.3827              81.521               17.221       
       5701.7496             81.5701               17.097       
       5730.2584             81.6182               16.975       
       5758.9096             81.6652               16.853       
       5787.7042             81.8721               16.731       
       5816.6427             81.9171               16.607       
       5845.7259             81.9606               16.483       
       5874.9546             82.0025               16.36        
       5904.3293             82.0431               16.238       
        5933.851             82.0823               16.117       
       5963.5202             82.1203               15.997       
       5993.3378              82.157               15.877       
       6023.3045             82.1926               15.759       
        6053.421             82.3382               15.641       
       6083.6882             82.3714               15.523       
       6114.1066             82.4033               15.405       
       6144.6771              82.434               15.288       
       6175.4005             82.4635               15.173       
       6206.2775             82.4918               15.058       
       6237.3089             82.5191               14.944       
       6268.4954             82.5452               14.831       
       6299.8379             82.5704               14.719       
       6331.3371             82.5945               14.608       
       6362.9938             82.6177               14.498       
       6394.8088             82.6399               14.389       
       6426.7828             82.6613               14.281       
       6458.9167             82.6818               14.173       
       6491.2113             82.7014               14.067       
       6523.6674             82.7202               13.961       
       6556.2857             82.7382               13.857       
       6589.0671             82.7555               13.753       
       6622.0125             82.7719               13.65        
       6655.1225             82.7877               13.548       
       6688.3981             82.8027               13.447       
       6721.8401             82.8171               13.347       
       6755.4493             82.8308               13.247       
       6789.2266             82.8439               13.149       
       6823.1727             82.8563               13.051       
       6857.2886             82.8681               12.954       
        6891.575             82.8794               12.858       
       6926.0329             82.8901               12.763       
       6960.6631             82.9002               12.669       
       6995.4664             82.9098               12.575       
       7030.4437             82.9189               12.483       
       7065.5959             82.9276               12.391       
       7100.9239             83.0258               12.298       
       7136.4285             83.0337               12.206       
       7172.1107              83.041               12.115       
       7207.9712             83.0476               12.024       
       7244.0111             83.0536               11.934       
       7280.2311             83.0591               11.845       
       7316.6323             83.0641               11.757       
       7353.2155             83.0685               11.669       
       7389.9815             83.0724               11.583       
       7426.9314             83.0758               11.497       
       7464.0661             83.0787               11.411       
       7501.3864             83.0812               11.327       
       7538.8934             83.0832               11.243       
       7576.5878             83.0848               11.16        
       7614.4708              83.086               11.078       
       7652.5431             83.0868               10.996       
       7690.8058             83.0872               10.915       
       7729.2599             83.0872               10.835       
       7767.9062             83.0869               10.755       
       7806.7457             83.0862               10.677       
       7845.7794             83.0852               10.598       
       7885.0083             83.0839               10.521       
       7924.4334             83.0823               10.444       
       7964.0555             83.0803               10.368       
       8003.8758             83.0781               10.293       
       8043.8952             83.0757               10.218       
       8084.1147             83.0729               10.144       
       8124.5352              83.07                10.07        
       8165.1579             83.0668               9.9973       
       8205.9837             83.0634               9.9251       
       8247.0136             83.0598               9.8535       
       8288.2487             83.0561               9.7826       
       8329.6899             83.0911               9.712        
       8371.3384             83.0873               9.6414       
       8413.1951             83.0833               9.5713       
        8455.261             83.0791               9.5019       
       8497.5373             83.0748               9.4331       
        8540.025             83.0703               9.3648       
        9030.794             83.3675               8.6075       
        9653.919             83.1474               7.6974       
        10320.04             82.8248               6.8927       
        11032.12             82.4107               6.177        
        11793.34             81.8825               5.5434       
        12607.08             81.1713               4.9819       
        13476.97              80.048               4.4697       
        14327.01             77.4631               4.0501       
        14406.88              76.864               4.0143       
        14546.3              74.8515               3.9528       
        14604.78             71.7863               3.9274       
        14692.5              74.8389               9.8855       
        14911.79             77.5422               9.6491       
        15400.95             79.3574               9.1516       
        16463.62             80.2686               8.1592       
        16990.36             79.7622               7.7257       
        17250.41             78.5366               7.5246       
        17319.76             76.9944               7.4723       
        17423.78             78.5556               10.443       
        17599.61             79.6359               10.27        
        17688.02             79.8846               10.185       
        17958.75             79.9644               9.9308       
        18030.95             79.3318               9.8647       
        18139.24             80.3157               11.305       
        18409.98             81.4412               11.052       
        18813.98             82.3219               10.691       
        20112.15             83.8524               9.6316       
        21499.88             84.7234               8.671        
        22983.38             85.2917               7.8074       
        24569.23             85.6786               7.028        
        26264.5              85.9512               6.3293       
        28076.76             86.1471               5.6672       
        30014.05             86.3113               5.0628       
        32085.02             86.3539               4.5199       
        34298.89             86.3577               4.0393       
        36665.51             86.3973               3.6038       
        39195.43             86.3486               3.2085       
        41899.92             86.2805               2.8588       
        44791.01             86.2003               2.5491       
        47881.59             86.1118               2.2747       
        51185.42             86.0176               2.0314       
        54717.21             85.9188               1.8154       
        58492.7              85.8157               1.6236       
        62528.7              85.7075               1.4531       
        66843.18             85.5914               1.2991       
        71455.36             85.4621               1.1619       
        76385.78             85.3123               1.0398       
        81656.4              85.1253              0.92583       
        87290.69             84.8517              0.81928       
        93313.74             84.3273              0.72553       
        96435.92             83.6637              0.68351       
        97911.98             82.6496              0.66498       
        98305.6              81.4368              0.66017       
        98896.02             82.7006               3.0396       
        99752.39             83.5003               2.9993       
        100372.1             83.8054               2.9707       
        106635.3             84.9779               2.7033       
        113993.1              85.479               2.4338       
        121858.7             85.7643               2.1883       
        130266.9             85.9468               1.9667       
        139255.3             86.0696               1.7675       
        148864.0             86.1528               1.5857       
        159135.6             86.2076               1.4226       
        170115.9             86.2427               1.2763       
        181853.9             86.2636               1.1451       
        194401.8             86.2742               1.0275       
        207815.6             86.2772              0.92212       
        222154.8             86.2748              0.82775       
        237483.5             86.2685              0.74313       
        253869.9             86.2595              0.66724       
        271386.9             86.2486              0.59916       
        290112.6             86.2365              0.53809       
        310130.4             86.2236              0.48329       
        331529.4             86.2103              0.43412       
        354404.9              86.197              0.38999       
        378858.8             86.1839              0.35037       
        405000.1             86.1711              0.31481       
        432945.1             86.1587              0.28289       
