# Ru
# Form Factors from Chantler Tables
# DOI: https://dx.doi.org/10.18434/T4HS32
# automatically retrived 2019-02-27 using URL https://physics.nist.gov/cgi-bin/ffast/ffast.pl
#
# Z = 44
# f_rel = -0.38596 e/atom  (Relativistic correction estimate)
# f_NT = -0.010508 e/atom (Nuclear Thomson correction)


#        E (eV)            f1 (e/atom)          f2 (e/atom)     
         10.69               1.00155               5.1187       
        11.42761             1.21062               5.4437       
        12.21612             1.45119               5.773        
        13.05903             1.72392               6.1017       
        13.9601              2.02883               6.4268       
        14.92335             2.36557               6.7445       
        15.95306             2.73311               7.0507       
        17.05382             3.12973               7.3418       
        18.23053             3.55307               7.6143       
        19.48844             4.00016               7.8653       
        20.83314             4.46753               8.0923       
        22.27063             4.95122               8.2934       
        23.8073              5.44688               8.4674       
        25.45001             5.94974               8.6137       
        27.20606             6.45448               8.7324       
        29.08327             6.95483               8.8241       
        31.09002             7.44255                8.89        
        33.23523              7.9047               8.9319       
        35.52846              8.3158               8.9519       
        37.97993             8.60832               8.9057       
        40.60054              8.4035               8.608        
         42.238              7.19875               8.4221       
        42.8845              4.95206               8.349        
        43.0569              1.97649               8.3296       
        43.3155              5.41269               14.303       
        43.40198             6.14069               14.235       
         43.962              8.52148               13.811       
        46.39671             11.7689               12.25        
        49.59809             13.2029               10.748       
        53.02035             13.9004               9.6507       
        56.67876             14.3271               8.8029       
        60.58959             14.6223               8.1135       
        64.77028             14.8381               7.5299       
        69.23942             14.9907               7.0211       
         73.402              15.0472               6.6222       
        74.01695             15.0352               6.5681       
        74.5255              15.0028               6.5243       
        74.8251              14.9268               6.4988       
        75.2745              15.0174               6.6227       
         76.398               15.111               6.5353       
        79.12411             15.2164               6.3367       
        84.58368             15.3454               5.9877       
        90.41995             15.4374               5.6701       
        96.65893             15.5029               5.3793       
        103.3284             15.5443               5.1122       
        110.4581             15.5624               4.8664       
        118.0797             15.5564               4.6398       
        126.2272             15.5248               4.4308       
        134.9368              15.453               4.2376       
        144.2475             15.3607               4.0589       
        154.2005             15.2304               3.8933       
        164.8404             15.0544               3.7394       
        176.2144             14.8216               3.5959       
        188.3732             14.5159               3.4611       
        201.3709             14.1129               3.3336       
        215.2655             13.5743               3.2125       
        230.1188             12.8364               3.0966       
        245.997              11.7634               2.9852       
        262.9708             9.99936               2.8775       
        273.812              7.92428               2.8139       
        277.928              6.16444               2.7907       
        278.003              6.10788               2.7902       
        279.1206             4.61041               2.784        
        280.797              5.30456               5.2239       
        281.1158             5.34954               5.2405       
        282.182               5.2651               5.2969       
        283.3164             4.50713               5.3584       
        285.018              5.36581               7.1567       
        289.272              5.99852               7.5805       
        300.5128             6.05492               8.891        
        321.2482             5.99312               11.975       
        343.4143             6.94055               15.257       
        367.1099             8.82922               18.158       
        392.4405             11.3403               20.327       
        419.5189             13.9957               21.614       
        448.4657             15.9267               22.049       
        451.388              15.9534               22.05        
        458.297              15.3295               22.028       
        460.1394             14.0529               22.017       
        462.903              15.6982               24.785       
        469.812              17.4209               24.722       
        473.144              17.8891               24.682       
        479.4098             18.4095               24.59        
        480.386              18.4097               24.574       
        482.3172             18.0427               24.541       
        485.214              19.0159               25.694       
        492.456              20.3756               25.556       
        512.4891             22.7608               25.078       
        547.8508             25.6936               24.006       
         573.3               27.0826               23.139       
        582.075              27.1746               22.832       
        584.415              26.8006               22.75        
        585.6525             26.9064               23.702       
        587.925              27.5104               23.622       
         596.7               28.4278               23.314       
        626.0625             30.2296               22.293       
        669.2609              32.085               20.854       
        715.4399             33.5416               19.435       
        764.8052              34.717               18.073       
        817.5768             35.6847               16.761       
        873.9896             36.4799               15.496       
        934.2948             37.1117               14.312       
        998.7612             37.6704               13.21        
        1067.676             38.0802               12.096       
        1141.345              38.383               11.038       
        1220.098             38.5496               9.9896       
        1304.285             38.6027               9.055        
        1394.281             38.5796               8.2212       
        1490.486             38.4965               7.4755       
        1593.329             38.3601               6.8087       
        1703.269             38.1767               6.2118       
        1820.795             37.9482               5.6769       
        1946.43              37.6565               5.1681       
        2080.733             37.2619               4.692        
        2224.304             36.7266               4.2654       
        2377.781             35.9697               3.8813       
        2541.848             34.7747               3.532        
        2717.235             32.2942               3.2179       
        2781.142             30.2369               3.1159       
        2823.71              26.5904               3.0513       
        2835.062             22.4727               3.0344       
        2852.089              26.378               10.932       
        2894.658             29.5073               10.698       
        2904.724             29.7685               10.643       
        2907.562             29.8248               10.628       
        2952.066              29.449               10.395       
        2963.933             27.6815               10.334       
        2981.735             29.9606               14.292       
        3026.238             32.7712               14.151       
        3105.15              34.9892               13.295       
        3159.52              35.6507               12.738       
        3207.88              35.5236               12.272       
        3220.776             34.7222               12.154       
        3240.12               35.884               13.854       
        3288.48              37.1842               13.431       
        3319.406             37.6671               13.184       
        3548.445             39.5868               11.858       
        3793.288             40.8496               11.047       
        4055.024             42.0086               10.035       
        4334.821             42.7363               9.0167       
        4633.924             43.2299               8.0998       
        4953.664              43.573               7.2799       
        5295.467             43.8127               6.5464       
        5660.855             43.9808               5.8883       
        6051.453             44.2178               5.2718       
        6469.004             44.3028               4.7148       
        6915.365             44.3118               4.2116       
        7392.525              44.29                3.7656       
        7902.609             44.2488                3.37        
        8447.89              44.1964               3.0188       
        9030.794             44.1479               2.6988       
        9653.919             44.0745               2.3932       
        10320.04             43.9861               2.1242       
        11032.12             43.8895               1.8872       
        11793.34             43.7875               1.6774       
        12607.08             43.6812               1.4903       
        13476.97             43.5675               1.321        
        14406.88              43.444               1.1691       
        15400.95             43.3048               1.0329       
        16463.62             43.1438              0.91336       
        17599.61             42.9479               0.8084       
        18813.98             42.6871              0.71616       
        20112.15             42.2765              0.63499       
        21499.88             41.2619              0.56348       
        21674.86             40.9604               0.5554       
        22006.61             39.6567              0.54057       
        22095.08             38.0877              0.53673       
        22227.79             39.6841               3.6233       
        22559.54             41.1276               3.5276       
        22983.38             41.8441               3.4109       
        24569.23             42.9361               3.0547       
        26264.5              43.4577               2.7483       
        28076.76             43.7905               2.4608       
        30014.05             44.0056               2.194        
        32085.02             44.1468               1.954        
        34298.89             44.2409               1.7404       
        36665.51             44.3031               1.5504       
        39195.43              44.343               1.3813       
        41899.92             44.3672               1.2307       
        44791.01              44.415               1.0952       
        47881.59             44.4167              0.96878       
        51185.42             44.4093              0.85705       
        54717.21             44.3964              0.75827       
        58492.7              44.3798              0.67093       
        62528.7              44.3612              0.59365       
        66843.18             44.3413              0.52527       
        71455.36             44.3209              0.46455       
        76385.78             44.3008              0.41073       
        81656.4              44.2821              0.36268       
        87290.69              44.262               0.3193       
        93313.74             44.2424              0.28113       
        99752.39             44.2236              0.24728       
        106635.3             44.2056              0.21738       
        113993.1             44.1885               0.1911       
        121858.7             44.1724              0.16801       
        130266.9             44.1573              0.14771       
        139255.3             44.1433              0.12987       
        148864.0             44.1304              0.11419       
        159135.6             44.1184              0.10041       
        170115.9             44.1074              0.088295      
        181853.9             44.0973              0.077645      
        194401.8             44.0881              0.068282      
        207815.6             44.0796              0.06005       
        222154.8             44.0719              0.052813      
        237483.5             44.0649              0.046449      
        253869.9             44.0585              0.040854      
        271386.9             44.0527              0.035934      
        290112.6             44.0475              0.031607      
        310130.4             44.0427              0.027802      
        331529.4             44.0384              0.024456      
        354404.9             44.0345              0.021513      
        378858.8              44.031              0.018925      
        405000.1             44.0278              0.016649      
        432945.1              44.025              0.014647      
