# Sb
# Form Factors from Chantler Tables
# DOI: https://dx.doi.org/10.18434/T4HS32
# automatically retrived 2019-02-28 using URL https://physics.nist.gov/cgi-bin/ffast/ffast.pl

# For f_rel the second term, which is 3/5th of the Cromer-Liberman value, is used as suggested by Chantler.
# Real and imaginary part of the formfactors are: f'(E)=f1(E)+f_rel+f_NT and f''(E)=f2(E)
# see also original publication:  https://doi.org/10.1063/1.555974

# Z = 51
# f_rel = -0.345 e/atom  (Relativistic correction estimate)
# f_NT = -0.01172 e/atom (Nuclear Thomson correction)


#        E (eV)            f1 (e/atom)          f2 (e/atom)     
         10.69               5.60066                0.0         
        11.42761             5.50128                0.0         
        12.21612             5.38564                0.0         
        13.05903             5.25072                0.0         
        13.9601              5.09278                0.0         
        14.92335             4.90714                0.0         
        15.95306             4.68795                0.0         
        17.05382             4.42767                0.0         
        18.23053              4.1165                0.0         
        19.48844             3.74142                0.0         
        20.83314             3.28467                0.0         
        22.27063             2.72124                0.0         
        23.8073              2.01461                0.0         
        25.45001             1.10848                0.0         
        27.20606            -0.0905118              0.0         
        29.08327             -1.75747               0.0         
         30.772              -3.84438               0.0         
        31.09002             -4.36403               0.0         
         31.243              -4.65656               0.0         
        31.3686              -4.98693               0.0         
         31.557              -5.20918             0.25761       
         32.028              -5.96971             0.37031       
        33.23523             -8.47735             0.91655       
        35.52846             -14.9079              4.479        
        37.97993             -20.7779              14.207       
        40.60054             -19.9494              29.219       
        43.40198             -9.21232              42.628       
        46.39671             7.33816               47.65        
        49.59809             22.5266               43.565       
        53.02035             32.0942               34.42        
        56.67876             35.9127               24.603       
        60.58959             35.8926               16.521       
        64.77028             34.0081               10.746       
        69.23942              31.549               6.9378       
        74.01695             29.1518               4.5311       
        79.12411             27.0458               3.0369       
        84.58368             25.2544               2.1106       
        90.41995             23.6943               1.5317       
         96.432              22.0731               1.1759       
        96.65893             21.9889               1.1656       
         97.908              21.2835               1.1122       
        98.3016              20.5485               1.0964       
         98.892              21.1727               2.4069       
        100.368              21.5874                2.32        
        103.3284             21.6265               2.1662       
        110.4581             21.2341               1.884        
        118.0797             20.7308               1.7036       
        126.2272              20.237               1.6018       
        134.9368             19.7643               1.5574       
        144.2475             19.2875               1.5578       
         148.96              19.0102               1.5713       
         151.24              18.7825               1.5803       
        151.848              18.5939               1.5829       
         152.76              18.7254               1.9125       
        154.2005             18.7836               1.923        
         155.04              18.7879               1.9293       
        164.8404             18.6293               2.0151       
        176.2144             18.3933               2.1333       
        188.3732             18.1581               2.271        
        201.3709             17.9281               2.4256       
        215.2655             17.7023               2.5975       
        230.1188             17.4794               2.784        
        245.997              17.2549               2.9781       
        262.9708             17.0152               3.173        
        281.1158             16.7428               3.3666       
        300.5128             16.4168               3.5553       
        321.2482             16.0178               3.7348       
        343.4143             15.5023               3.9011       
        367.1099             14.8094               4.0507       
        392.4405             13.8406               4.1813       
        419.5189             12.4195               4.2907       
        448.4657              10.181               4.3779       
        479.4098             6.15466               4.444        
        512.4891             -4.39626              4.4816       
         516.95              -7.65911              4.4842       
        524.8625             -19.9185              4.4879       
        526.162              -25.5442              4.4884       
        526.9725             -33.0107              4.4887       
        530.1375             -21.8369              28.634       
        534.2155              -18.66               28.262       
        536.3631             -24.3979              28.069       
         538.05              -18.8391              43.941       
        539.5845             -13.2225              43.714       
        547.8508             -1.09635              42.526       
        585.6525             16.3151               37.707       
        626.0625             23.2994               33.734       
        669.2609             27.2541               30.618       
        715.4399             29.5461               28.003       
        750.288              29.8255               26.331       
        761.772              28.7013               25.821       
        764.8052             27.0528               25.689       
        764.8344             27.0121               25.688       
        769.428              28.9494               28.986       
        780.912              30.8036               28.502       
        795.662               31.795               27.902       
        807.8405             31.9318               27.424       
        811.0881             31.3556               27.299       
        815.9595             32.3883               28.607       
        817.5768             32.6333               28.546       
        828.138              33.6578               28.156       
        873.9896             36.0758               26.568       
        924.826              37.5487               24.989       
        934.2948             37.6111               24.714       
        938.9815             37.5172               24.58        
        942.7563              37.073               24.472       
        948.4185             37.8019               25.405       
        962.574              38.6901               25.015       
        998.7612             40.0143               24.069       
        1067.676             41.8815               22.119       
        1141.345              43.143               20.307       
        1220.098              44.09                18.64        
        1304.285             44.8358               17.107       
        1394.281             45.4081               15.648       
        1490.486             45.8155               14.293       
        1593.329             46.1106               13.058       
        1703.269             46.3046               11.926       
        1820.795             46.4133               10.897       
        1946.43              46.4607               9.9536       
        2080.733             46.4584               9.0959       
        2224.304             46.4054               8.2687       
        2377.781             46.2816               7.5066       
        2541.848             46.0945               6.8253       
        2717.235             45.8465               6.2155       
        2904.724             45.5381               5.6689       
        3105.15              45.1717               5.118        
        3319.406              44.619               4.5597       
        3548.445             43.7679               4.0612       
        3793.288             42.3394               3.623        
        4049.556             38.6985               3.2402       
        4055.024             38.5259               3.2328       
        4111.539             35.2495               3.1579       
        4128.068             31.2844               3.1365       
        4152.861             35.1768               10.786       
        4214.844             38.4252               10.425       
        4292.792             39.4207               9.996        
        4334.821             39.2292               9.7756       
        4358.498             38.6196               9.6715       
        4376.02              36.8523               9.5967       
        4402.302             39.0524               13.294       
        4468.008             41.2611               12.901       
        4604.334             42.8218               12.162       
        4633.924             42.9076               12.022       
        4674.808             42.7008               11.837       
        4693.602             41.9213               11.754       
        4721.791              43.069               13.468       
        4792.266             44.3895               13.158       
        4953.664             45.8807               12.511       
        5295.467             47.6632               11.356       
        5660.855             48.8405               10.281       
        6051.453             49.6541               9.262        
        6469.004             50.2187               8.3229       
        6915.365              50.607               7.4727       
        7392.525             50.8727               6.7098       
        7902.609             51.0531               6.0285       
        8447.89              51.2517               5.4184       
        9030.794             51.3849               4.8549       
        9653.919             51.4451               4.3109       
        10320.04             51.4241               3.8246       
        11032.12             51.3726               3.3957       
        11793.34             51.3015               3.0177       
        12607.08             51.2178               2.6842       
        13476.97             51.1259               2.3898       
        14406.88             51.0287               2.1296       
        15400.95             50.9275               1.8978       
        16463.62             50.8228               1.6923       
        17599.61              50.715               1.5106       
        18813.98             50.6025               1.3455       
        20112.15             50.4806               1.1969       
        21499.88             50.3444               1.0614       
        22983.38             50.1845               0.9412       
        24569.23             49.9872               0.8354       
        26264.5              49.7185              0.74215       
        28076.76             49.2783              0.65316       
        29881.38             48.1193              0.57836       
        30014.05             47.9024               0.5734       
        30338.74             46.8668              0.56152       
        30460.71             45.3623              0.55716       
        30643.66             46.8879               3.5145       
        31101.02             48.2676               3.4275       
        32085.02             49.2519               3.252        
        34298.89             50.1312               2.911        
        36665.51             50.5777               2.6076       
        39195.43             50.8571               2.3365       
        41899.92             51.0451               2.0865       
        44791.01              51.17                1.8611       
        47881.59             51.2536               1.6592       
        51185.42             51.3083               1.4786       
        54717.21             51.3425               1.3173       
        58492.7              51.3619               1.1735       
        62528.7              51.4029               1.0438       
        66843.18             51.4014              0.92605       
        71455.36             51.3932              0.82164       
        76385.78             51.3809              0.72906       
        81656.4              51.3667              0.64593       
        87290.69             51.3491              0.57023       
        93313.74             51.3295              0.50344       
        99752.39             51.3089               0.4445       
        106635.3             51.2882              0.39249       
        113993.1             51.2677              0.34659       
        121858.7             51.2478              0.30608       
        130266.9             51.2287              0.27032       
        139255.3             51.2105              0.23871       
        148864.0             51.1933              0.21081       
        159135.6             51.1771              0.18617       
        170115.9              51.162              0.16443       
        181853.9             51.1479              0.14523       
        194401.8             51.1348              0.12828       
        207815.6             51.1228              0.11331       
        222154.8             51.1116               0.1001       
        237483.5             51.1014              0.088426      
        253869.9              51.092              0.078119      
        271386.9             51.0834              0.069017      
        290112.6             51.0755              0.060977      
        310130.4             51.0683              0.053876      
        331529.4             51.0617              0.047604      
        354404.9             51.0558              0.042063      
        378858.8             51.0503              0.037169      
        405000.1             51.0454              0.032845      
        432945.1             51.0409              0.029025      
