# Se
# Form Factors from Chantler Tables
# DOI: https://dx.doi.org/10.18434/T4HS32
# automatically retrived 2019-02-28 using URL https://physics.nist.gov/cgi-bin/ffast/ffast.pl

# For f_rel the second term, which is 3/5th of the Cromer-Liberman value, is used as suggested by Chantler.
# Real and imaginary part of the formfactors are: f'(E)=f1(E)+f_rel+f_NT and f''(E)=f2(E)
# see also original publication:  https://doi.org/10.1063/1.555974

# Z = 34
# f_rel = -0.129 e/atom  (Relativistic correction estimate)
# f_NT = -0.0080314 e/atom (Nuclear Thomson correction)


#        E (eV)            f1 (e/atom)          f2 (e/atom)     
         10.69                7.1217                0.0         
        11.42761             7.11201                0.0         
        12.21612             7.10091                0.0         
        13.05903             7.08817                0.0         
        13.9601              7.07355                0.0         
        14.92335             7.05677                0.0         
        15.95306              7.0375                0.0         
        17.05382             7.01534                0.0         
        18.23053             6.98983                0.0         
        19.48844             6.96044                0.0         
        20.83314             6.92655                0.0         
        22.27063             6.88738                0.0         
        23.8073              6.84205                0.0         
        25.45001             6.78948                0.0         
        27.20606             6.72835                0.0         
        29.08327             6.65705                0.0         
        31.09002             6.57359                0.0         
        33.23523             6.47542                0.0         
        35.52846              6.3593                0.0         
        37.97993              6.2209                0.0         
        40.60054              6.0543                0.0         
        43.40198             5.85093                0.0         
        46.39671             5.59743                0.0         
        49.59809             5.26996                0.0         
        53.02035             4.81237                0.0         
         55.566              4.28445                0.0         
        56.4165              3.91211                0.0         
        56.67876             3.42611                0.0         
        56.9835              3.79296              0.54255       
         57.834              3.87146              0.60226       
        60.58959             3.62586              0.83607       
        64.77028             3.11653               1.3253       
        69.23942             2.60474               1.9914       
        74.01695             2.15098               2.8356       
        79.12411             1.81009               3.8477       
        84.58368              1.6304               5.0006       
        90.41995             1.64914               6.2528       
        96.65893             1.88864               7.5533       
        103.3284             2.35448               8.8472       
        110.4581             3.03577               10.081       
        118.0797             3.90686               11.208       
        126.2272             4.92969               12.19        
        134.9368             6.05516                13.0        
        144.2475             7.21906               13.623       
        154.2005             8.30675               14.052       
        158.662              8.64723               14.177       
        161.0905             8.63184               14.229       
        161.7381             8.38352               14.242       
        162.7095             8.77941               14.871       
        164.8404             9.21656               14.928       
        165.138               9.2596               14.935       
        167.359              9.49061               14.986       
        168.0318             9.44902                15.0        
        169.041              9.71715               15.287       
        171.564              10.1672               15.345       
        176.2144             10.8049               15.433       
        188.3732             12.2345               15.564       
        201.3709             13.5635               15.559       
        215.2655             14.7764               15.427       
         226.87              15.5251               15.243       
        230.1188             15.5403               15.181       
        230.3425             15.5218               15.177       
        231.2685             15.2643               15.158       
        232.6575             15.7024               15.777       
         236.13              16.2554               15.71        
        245.997              17.2195               15.497       
        262.9708             18.5115               15.073       
        281.1158             19.6545               14.566       
        300.5128             20.6785               13.993       
        321.2482             21.5921               13.372       
        343.4143             22.4007               12.719       
        367.1099             23.1097               12.047       
        392.4405             23.7249               11.368       
        419.5189             24.2525               10.691       
        448.4657             24.6988               10.025       
        479.4098             25.0701               9.376        
        512.4891              25.377               8.7484       
        547.8508             25.6153               8.1457       
        585.6525             25.7945               7.5704       
        626.0625             25.9182               7.0238       
        669.2609             25.9889               6.5064       
        715.4399             26.0077               6.017        
        764.8052             25.9709               5.556        
        817.5768             25.8757               5.1241       
        873.9896             25.7157               4.7216       
         900.0                26.049               4.5539       
         904.5               26.0344               4.5259       
        909.0225             26.0195               4.4981       
       913.56761             26.0042               4.4705       
       918.13545             25.9885               4.443        
       922.72613             25.9723               4.4157       
       927.33976             25.9558               4.3885       
       931.97646             25.9388               4.3615       
       936.63634             25.9214               4.3347       
       941.31952             25.9036               4.308        
       946.02612             25.8853               4.2815       
       950.75625             25.8666               4.2551       
       955.51003             25.8475               4.2289       
       960.28758             25.8279               4.2029       
       965.08902             25.8078               4.177        
       969.91446             25.7872               4.1513       
       974.76404             25.7662               4.1257       
       979.63786             25.7447               4.1003       
       984.53605             25.7227               4.075        
       989.45873             25.7002               4.0499       
       994.40602             25.6772               4.025        
       999.37805             25.6537               4.0002       
       1004.3749             25.6296               3.9699       
       1009.3968             25.6045               3.9392       
       1014.4438             25.5785               3.9086       
        1019.516             25.5515               3.8784       
       1024.6136             25.5236               3.8484       
       1029.7367             25.4946               3.8186       
       1034.8853             25.4647               3.7891       
       1040.0598             25.4338               3.7599       
       1045.2601             25.4018               3.7309       
       1050.4864             25.3689               3.7021       
       1055.7388             25.3349               3.6736       
       1061.0175             25.2998               3.6453       
       1066.3226             25.2637               3.6166       
       1071.6542             25.2264               3.5868       
       1077.0125             25.1879               3.5572       
       1082.3975             25.1482               3.5278       
       1087.8095             25.1072               3.4988       
       1093.2486             25.0649                3.47        
       1098.7148             25.0213               3.4415       
       1104.2084             24.9764               3.4133       
       1109.7294              24.93                3.3853       
       1115.2781             24.8821               3.3576       
       1120.8545             24.8328               3.3302       
       1126.4587              24.782               3.303        
        1132.091             24.7295               3.276        
       1137.7515             24.6754               3.2494       
       1143.4402             24.6197               3.2229       
       1149.1574             24.5621               3.1967       
       1154.9032             24.5027               3.1708       
       1160.6777             24.4414               3.1451       
       1166.4811             24.3781               3.1196       
       1172.3135             24.3127               3.0944       
       1178.1751             24.2451               3.0694       
        1184.066             24.1752               3.0447       
       1189.9863             24.1029               3.0201       
       1195.9362             24.0281               2.9958       
       1201.9159             23.9506               2.9717       
       1207.9255             23.8704               2.9479       
       1213.9651             23.7872               2.9242       
        1220.035             23.7008               2.9008       
       1226.1351             23.6111               2.8776       
       1232.2658             23.5179               2.8546       
       1238.4271             23.4209               2.8318       
       1244.6193             23.3199               2.8093       
       1250.8424             23.2146               2.7869       
       1257.0966             23.1047               2.7647       
       1263.3821             22.9898               2.7428       
        1269.699             22.8696               2.721        
       1276.0475             22.7437               2.6995       
       1282.4277             22.6114               2.6781       
       1288.8399             22.4723               2.6569       
        1295.284             22.3258               2.6359       
       1301.7605             22.1711               2.6152       
       1308.2693             22.0073               2.5946       
       1314.8106             21.8335               2.5741       
       1321.3847             21.6486               2.5539       
       1327.9916             21.4512               2.5339       
       1334.6316             21.2397               2.514        
       1341.3047             21.0122               2.4943       
       1348.0112             20.7662               2.4748       
       1354.7513             20.4989               2.4555       
        1361.525             20.2066               2.4363       
       1368.3327             19.8845               2.4173       
       1375.1743             19.5263               2.3985       
       1382.0502             19.1236               2.3799       
       1388.9605             18.6644               2.3614       
       1395.9053             18.1311               2.3431       
       1402.8848             17.4959               2.3249       
       1409.8992             16.7115               2.3069       
       1416.9487             15.6854               2.2891       
       1424.0335             14.1918               2.2714       
       1431.1536             11.3302               2.2539       
       1435.6568             0.959582              2.243        
       1435.9431             0.798914              11.542       
       1438.3094             9.23944               11.512       
       1445.5009             13.0471               11.42        
       1452.7284             14.3962               11.329       
       1459.9921             14.9963               11.238       
        1467.292             14.9826               11.149       
       1474.6285             13.1496               11.06        
       1476.0494             9.84436               11.043       
       1476.3506             9.79284               15.634       
       1482.0016             15.5867               15.539       
       1489.4117             17.2959               15.416       
       1496.8587             18.3878               15.293       
        1504.343              19.226               15.172       
       1511.8647             19.9166               15.052       
        1519.424              20.507               14.932       
       1527.0212             21.0233               14.814       
       1534.6563             21.4817               14.696       
       1542.3295             21.8929               14.58        
       1550.0412             22.2641               14.464       
       1557.7914             22.6008               14.35        
       1565.5804             22.9069               14.236       
       1573.4083              23.185               14.123       
       1581.2753             23.4368               14.011       
       1589.1817             23.6634                13.9        
       1597.1276             23.8645               13.79        
       1605.1132             24.0389               13.681       
       1613.1388             24.1834               13.573       
       1621.2045             24.2915               13.465       
       1629.3105             24.3501               13.359       
       1637.4571             24.3277               13.253       
       1645.6443             24.1226               13.148       
       1652.4595             23.2318               13.062       
       1653.8726              20.853               13.044       
       1655.3406             23.2748               14.94        
       1662.1419             24.5031               14.848       
       1670.4526              25.119               14.737       
       1678.8049             25.5503               14.627       
       1687.1989              25.902               14.518       
       1695.6349             26.2073               14.41        
       1704.1131             26.4811               14.302       
       1712.6337             26.7317               14.196       
       1721.1968             26.9639               14.09        
       1729.8028             27.1809               13.985       
       1738.4518             27.3848               13.882       
       1747.1441             27.5781               13.78        
       1755.8798             27.7624               13.679       
       1764.6592             27.9384               13.579       
       1773.4825              28.107               13.481       
       1782.3499             28.2688               13.383       
       1791.2617             28.4245               13.285       
        1800.218             28.5744               13.189       
       1809.2191             28.7191               13.093       
       1818.2652              28.859               12.999       
       1827.3565             28.9943               12.905       
       1836.4933             29.1253               12.812       
       1845.6757             29.2525               12.719       
       1854.9041              29.376               12.628       
       1864.1786             29.4961               12.537       
       1873.4995             29.6128               12.446       
        1882.867              29.726               12.355       
       1892.2814             29.8359               12.264       
       1901.7428             29.9427               12.175       
       1911.2515             30.0466               12.086       
       1920.8077             30.1477               11.997       
       1930.4118              30.246               11.909       
       1940.0638             30.3416               11.821       
       1949.7642             30.4345               11.733       
        1959.513             30.5249               11.647       
       1969.3105              30.613               11.561       
       1979.1571             30.6988               11.476       
       1989.0529             30.7824               11.391       
       1998.9981             30.8638               11.307       
       2008.9931             30.9433               11.224       
       2019.0381             31.0208               11.141       
       2029.1333             31.0964               11.059       
        2039.279             31.1702               10.978       
       2049.4754             31.2423               10.897       
       2059.7227             31.3127               10.817       
       2070.0213             31.3815               10.737       
       2080.3714             31.4487               10.658       
       2090.7733             31.5144               10.58        
       2101.2272             31.5787               10.502       
       2111.7333             31.6416               10.425       
        2122.292             31.7031               10.348       
       2132.9034             31.7634               10.272       
        2143.568             31.8225               10.196       
       2154.2858             31.8805               10.121       
       2165.0572              31.937               10.045       
       2175.8825              31.992               9.9697       
       2186.7619             32.0458               9.895        
       2197.6957             32.0982               9.8209       
       2208.6842             32.1494               9.7473       
       2219.7276             32.1994               9.6742       
       2230.8263             32.2482               9.6016       
       2241.9804             32.2959               9.5296       
       2253.1903             32.3425               9.4581       
       2264.4562              32.388               9.3871       
       2275.7785             32.4325               9.3166       
       2287.1574              32.476               9.2467       
       2298.5932             32.5185               9.1772       
       2310.0862             32.5601               9.1083       
       2321.6366             32.6007               9.0399       
       2333.2448             32.6404               8.9719       
        2344.911             32.6792               8.9045       
       2356.6356             32.7172               8.8376       
       2368.4187             32.7543               8.7711       
       2380.2608             32.7906               8.7052       
       2392.1621             32.8261               8.6397       
        2404.123             32.8608               8.5747       
       2416.1436             32.8947               8.5102       
       2428.2243             32.9279               8.4462       
       2440.3654             32.9604               8.3826       
       2452.5672             32.9922               8.3195       
       2464.8301             33.0232               8.2569       
       2477.1542             33.0536               8.1948       
        2489.54              33.0834               8.1331       
       2501.9877             33.1125               8.0719       
       2514.4976             33.1409               8.0112       
       2527.0701             33.1688               7.9509       
       2539.7055              33.196               7.8911       
        2552.404             33.2227               7.8317       
        2565.166             33.2488               7.7728       
       2577.9919             33.2743               7.7143       
       2590.8818             33.2993               7.6562       
       2603.8362             33.3238               7.5986       
       2616.8554             33.3478               7.5415       
       2629.9397             33.3712               7.4848       
       2643.0894             33.3942               7.4285       
       2656.3048             33.4167               7.3726       
       2669.5863             33.4388               7.3172       
       2682.9343             33.4604               7.2622       
       2696.3489             33.4816               7.2076       
       2709.8307             33.5024               7.1535       
       2723.3798             33.5228               7.0998       
       2736.9967             33.5427               7.0464       
       2750.6817             33.5624               6.9935       
       2764.4351             33.5816               6.9411       
       2778.2573             33.6006               6.889        
       2792.1486             33.6192               6.8373       
       2806.1093             33.6375               6.786        
       2820.1399             33.6555               6.7352       
       2834.2406             33.6732               6.6847       
       2848.4118             33.6907               6.6346       
       2862.6539              33.708               6.5849       
       2876.9671             33.8286               6.5352       
        2891.352             33.8455               6.4853       
       2905.8087             33.8621               6.4357       
       2920.3378             33.8785               6.3865       
       2934.9394             33.8948               6.3377       
       2949.6141              33.911               6.2893       
       2964.3622             33.9811               6.2408       
        2979.184             33.9974               6.1927       
       2994.0799              34.014               6.1449       
       3009.0503             34.0286               6.0945       
       3024.0956             34.0413               6.0426       
       3039.2161             34.0534               5.9911       
       3054.4122             34.0649               5.9398       
       3069.6842             34.0758               5.8889       
       3085.0326             34.0862               5.8385       
       3100.4578             34.0961               5.7885       
       3115.9601             34.1055               5.739        
       3131.5399             34.1144                5.69        
       3147.1976             34.1229               5.6414       
       3162.9336              34.131               5.5932       
       3178.7482             34.1387               5.5454       
        3194.642              34.146               5.498        
       3210.6152             34.1529               5.451        
       3226.6683             34.1594               5.4045       
       3242.8016             34.1657               5.3584       
       3259.0156             34.1715               5.3127       
       3275.3107             34.1771               5.2674       
       3291.6873             34.1824               5.2226       
       3308.1457             34.2289               5.1781       
       3324.6864             34.2338               5.133        
       3341.3099             34.2383               5.0882       
       3358.0164             34.2424               5.0438       
       3374.8065             34.2462               4.9999       
       3391.6805             34.2496               4.9564       
       3408.6389             34.2527               4.9133       
       3425.6821             34.2555               4.8705       
       3442.8105              34.258               4.8282       
       3460.0246             34.2602               4.7862       
       3477.3247             34.2621               4.7447       
       3494.7113             34.2637               4.7035       
       3512.1849             34.2651               4.6627       
       3529.7458             34.2662               4.6223       
       3547.3945             34.2671               4.5823       
       3565.1315             34.2678               4.5426       
       3582.9572             34.2682               4.5033       
       3600.8719             34.2684               4.4643       
       3618.8763             34.2684               4.4257       
       3636.9707             34.2682               4.3875       
       3655.1555             34.2678               4.3496       
       3673.4313             34.2671               4.3121       
       3691.7985             34.2663               4.2749       
       3710.2575             34.2654               4.238        
       3728.8088             34.2642               4.2015       
       3747.4528             34.2629               4.1653       
       3766.1901             34.2614               4.1295       
        3785.021             34.2597               4.094        
       3803.9461             34.2579               4.0588       
       3822.9659             34.2559               4.0239       
       3842.0807             34.2538               3.9894       
       3861.2911             34.2516               3.9551       
       3880.5975             34.2492               3.9212       
       3900.0005             34.2466               3.8876       
       3919.5005              34.244               3.8543       
        3939.098             34.2412               3.8213       
       3958.7935             34.2382               3.7886       
       3978.5875             34.2352               3.7562       
       3998.4804              34.232               3.7241       
       4018.4728             34.2288               3.6923       
       4038.5652             34.2254               3.6607       
        4058.758             34.2219               3.6295       
       4079.0518             34.2183               3.5986       
       4099.4471             34.2146               3.5679       
       4119.9443             34.2108               3.5375       
        4140.544             34.2069               3.5074       
       4161.2467             34.2029               3.4775       
        4182.053             34.1989               3.448        
       4202.9632             34.1947               3.4187       
       4223.9781             34.1905               3.3896       
        4245.098             34.1861               3.3609       
       4266.3234             34.1817               3.3324       
       4287.6551             34.1772               3.3041       
       4309.0933             34.1727               3.2761       
       4330.6388              34.168               3.2484       
        4352.292             34.1633               3.2209       
       4374.0535             34.1586               3.1935       
       4395.9237             34.1537               3.1664       
       4417.9033             34.1488               3.1395       
       4439.9929             34.1438               3.1129       
       4462.1928             34.1388               3.0865       
       4484.5038             34.1337               3.0604       
       4506.9263             34.1285               3.0345       
       4529.4609             34.1233               3.0088       
       4552.1082              34.118               2.9834       
       4574.8688             34.1127               2.9582       
       4597.7431             34.1073               2.9332       
       4620.7318             34.1018               2.9085       
       4643.8355             34.0963               2.8839       
       4667.0547             34.0908               2.8596       
        4690.39              34.0852               2.8355       
       4713.8419             34.0795               2.8117       
       4737.4111             34.0738               2.788        
       4761.0982             34.0681               2.7645       
       4784.9037             34.0623               2.7413       
       4808.8282             34.0565               2.7183       
       4832.8723             34.0507               2.6955       
       4857.0367             34.0448               2.6729       
       4881.3219             34.0389               2.6504       
       4905.7285             34.0329               2.6282       
       4930.2571             34.0269               2.6062       
       4954.9084             34.0209               2.5844       
       4979.6829             34.0148               2.5628       
       5004.5814             34.0087               2.5414       
       5029.6043             34.0026               2.5201       
       5054.7523             33.9964               2.4991       
        5080.026             33.9903               2.4782       
       5105.4262             33.9841               2.4576       
       5130.9533             33.9778               2.4371       
       5156.6081             33.9716               2.4168       
       5182.3911             33.9653               2.3967       
       5208.3031              33.959               2.3767       
       5234.3446             33.9527               2.3569       
       5260.5163             33.9463               2.3374       
       5286.8189              33.94                2.3179       
        5313.253             33.9336               2.2987       
       5339.8192             33.9272               2.2796       
       5366.5183             33.9207               2.2607       
       5393.3509             33.9143               2.242        
       5420.3177             33.9078               2.2234       
       5447.4193             33.9014               2.205        
       5474.6564             33.8949               2.1868       
       5502.0297             33.8884               2.1687       
       5529.5398             33.8819               2.1508       
       5557.1875             33.8753               2.1331       
       5584.9734             33.8688               2.1155       
       5612.8983             33.8623               2.098        
       5640.9628             33.8557               2.0807       
       5669.1676             33.8491               2.0636       
       5697.5135             33.8425               2.0466       
        5726.001             33.8359               2.0298       
        5754.631             33.8293               2.0131       
       5783.4042             33.8227               1.9966       
       5812.3212             33.8161               1.9802       
       5841.3828             33.8095               1.9639       
       5870.5897             33.8029               1.9478       
       5899.9427             33.7963               1.9319       
       5929.4424             33.7896               1.9161       
       5959.0896              33.783               1.9004       
        5988.885             33.7764               1.8848       
       6018.8295             33.7697               1.8694       
       6048.9236             33.7631               1.8542       
       6079.1682             33.7565               1.839        
       6109.5641             33.7498               1.824        
       6140.1119             33.7432               1.8092       
       6170.8125             33.7366               1.7944       
       6201.6665             33.7299               1.7798       
       6232.6749             33.7233               1.7651       
       6263.8382             33.7167               1.7502       
       6295.1574              33.71                1.7354       
       6326.6332             33.7033               1.7207       
       6358.2664             33.6966               1.7061       
       6390.0577             33.6898               1.6917       
        6422.008              33.683               1.6772       
        6454.118             33.6761               1.6628       
       6486.3886             33.6692               1.6485       
       6518.8206             33.6622               1.6343       
       6551.4147             33.6552               1.6203       
       6584.1717             33.6482               1.6064       
        6915.365             33.5926               1.4764       
        7392.525             33.4882               1.3147       
        7902.609             33.3744               1.1689       
        8447.89              33.2495               1.0402       
        9030.794             33.1131              0.92336       
        9653.919             32.9468               0.8104       
        10320.04             32.7281              0.71195       
        11032.12             32.4168              0.62607       
        11793.34             31.8669              0.55107       
        12404.64             30.7234              0.50063       
        12607.08             29.1062              0.48552       
        12645.14             27.6562              0.48276       
        12721.09             29.3734               3.7868       
        12910.96             30.9258               3.6719       
        13476.97             32.2506               3.3722       
        14406.88             33.0616               3.0123       
        15400.95             33.5009               2.7116       
        16463.62             33.7958               2.4478       
        17599.61             34.0028               2.1904       
        18813.98             34.1433               1.9566       
        20112.15             34.2391               1.7451       
        21499.88             34.3029               1.5552       
        22983.38             34.3439               1.3856       
        24569.23             34.3689               1.2347       
        26264.5              34.4192               1.0988       
        28076.76             34.4238              0.97157       
        30014.05             34.4171              0.85771       
        32085.02             34.4042              0.75718       
        34298.89             34.3873              0.66844       
        36665.51              34.368               0.5899       
        39195.43             34.3473              0.52047       
        41899.92              34.326              0.45925       
        44791.01             34.3046              0.40525       
        47881.59             34.2837              0.35762       
        51185.42             34.2635              0.31561       
        54717.21             34.2444              0.27856       
        58492.7              34.2261              0.24442       
        62528.7              34.2081              0.21442       
        66843.18              34.191              0.18812       
        71455.36             34.1749              0.16505       
        76385.78             34.1598              0.14481       
        81656.4              34.1459              0.12692       
        87290.69             34.1328              0.11097       
        93313.74             34.1207              0.097022      
        99752.39             34.1094              0.084831      
        106635.3              34.099              0.074175      
        113993.1             34.0895              0.06486       
        121858.7             34.0808              0.056717      
        130266.9             34.0729              0.049598      
        139255.3             34.0657              0.043374      
        148864.0             34.0591              0.037932      
        159135.6             34.0531              0.033174      
        170115.9             34.0477              0.029014      
        181853.9             34.0429              0.025376      
        194401.8             34.0385              0.022195      
        207815.6             34.0345              0.019413      
        222154.8             34.0309              0.016981      
        237483.5             34.0277              0.014853      
        253869.9             34.0248              0.012993      
        271386.9             34.0221              0.011366      
        290112.6             34.0198             0.0099429      
        310130.4             34.0177             0.0086982      
        331529.4             34.0158             0.0076096      
        354404.9             34.0141             0.0066574      
        378858.8             34.0126             0.0058245      
        405000.1             34.0112             0.0050959      
        432945.1              34.01              0.0044586      
