# Sm
# Form Factors from Chantler Tables
# DOI: https://dx.doi.org/10.18434/T4HS32
# automatically retrived 2019-02-27 using URL https://physics.nist.gov/cgi-bin/ffast/ffast.pl
#
# Z = 62
# f_rel = -0.91787 e/atom  (Relativistic correction estimate)
# f_NT = -0.014025 e/atom (Nuclear Thomson correction)


#        E (eV)            f1 (e/atom)          f2 (e/atom)     
          5.39               12.6627                0.0         
         5.4725              12.6395                0.0         
         5.4945               12.62                 0.0         
         5.5275              12.6329              0.033428      
          5.61               12.6384              0.035067      
         10.69               11.9895              0.19065       
        11.42761             11.8453              0.21975       
        12.21612             11.6714               0.2527       
        13.05903             11.4588              0.29009       
        13.9601              11.1936              0.33254       
        14.92335             10.8539               0.3808       
        15.95306             10.4023              0.43567       
        17.05382              9.8018              0.49806       
        18.23053             8.82703              0.56895       
        19.48844             7.04772              0.64942       
        20.83314             1.54367               0.7406       
         20.874              1.13415              0.74345       
        21.1935              -5.42605             0.76591       
        21.2787              -13.5144             0.77195       
        21.4065              -4.77791              16.823       
         21.726              2.94811               16.205       
        22.27063             7.74165               15.23        
        23.8073              13.1791               12.929       
        25.45001             15.6856               10.907       
        27.20606             16.9697               9.1675       
        29.08327             17.5776               7.7466       
        31.09002             17.7918               6.6351       
        33.23523             17.7805               5.7999       
        35.52846             17.6467               5.1995       
         36.652              17.5585               4.988        
         37.213              17.5059               4.8988       
        37.3626               17.483               4.8768       
         37.587              17.4764               4.867        
        37.97993             17.4536               4.8155       
         38.148              17.4423               4.7949       
        40.60054             17.2685               4.5712       
        43.40198              17.089               4.4534       
        46.39671             16.9349               4.4363       
        49.59809             16.8151               4.4994       
        53.02035              16.735               4.6244       
        56.67876             16.6946               4.7895       
        60.58959             16.6887               4.9941       
        64.77028             16.7318               5.2307       
        69.23942             16.7934               5.4931       
        74.01695             16.8862               5.7767       
        79.12411             17.0075               6.0781       
        84.58368             17.1534               6.3945       
        90.41995             17.3175               6.7245       
        96.65893             17.4882               7.067        
         100.0               20.5652               7.246        
         100.5               20.5766               7.2725       
        101.0025             20.5878               7.2991       
       101.50751             20.5987               7.3257       
       102.01505             20.6092               7.3525       
       102.52513             20.6194               7.3792       
       103.03775             20.6291               7.4061       
       103.55294             20.6388               7.4181       
        104.0707             20.6473               7.4167       
       104.59106              20.654               7.415        
       105.11401             20.6588               7.4132       
       105.63958             20.6616               7.4111       
       106.16778             20.6622               7.4088       
       106.69862             20.6607               7.4063       
       107.23211             20.6569               7.4036       
       107.76827             20.6506               7.4007       
       108.30712             20.6417               7.3976       
       108.84865             20.6301               7.3943       
       109.39289             20.6155               7.3907       
       109.93986             20.5979               7.387        
       110.48956             20.5769               7.383        
       111.04201             20.5524               7.3789       
       111.59722              20.524               7.3745       
        112.1552             20.4915               7.3699       
       112.71598              20.455               7.3651       
       113.27956             20.4131               7.3602       
       113.84596             20.3659               7.355        
       114.41519             20.3129               7.3496       
       114.98726             20.2535               7.344        
        115.5622             20.1871               7.3381       
       116.14001             20.1128               7.3321       
       116.72071             20.0299               7.3259       
       117.30431             19.9372               7.3195       
       117.89083             19.8336               7.3129       
       118.48029             19.7175               7.3061       
       119.07269             19.5872               7.299        
       119.66805             19.4406               7.2918       
       120.26639              19.275               7.2844       
       120.86772             19.0872               7.2768       
       121.47206             18.8731               7.2689       
       122.07942             18.6273               7.2609       
       122.68982             18.3429               7.2527       
       123.30327             18.0107               7.2443       
       123.91979             17.6178               7.2357       
       124.53939             17.1458               7.2269       
       125.16208             16.5674               7.2179       
       125.78789             15.8392               7.2087       
       126.41683             14.8876               7.1994       
       127.04892             13.5719               7.1898       
       127.68416             11.5723               7.1801       
       128.32258             7.86869               7.1701       
       128.96419             -11.309                7.16        
       128.97987             -15.2959              7.1598       
       129.02012             -15.1333              29.133       
       129.60902             10.0196               27.85        
       130.25706             15.8212               26.53        
       130.90835              19.185               25.292       
       131.56289             21.5087               24.132       
        132.2207             23.2368               23.044       
       132.88181             24.5738               22.024       
       133.54621             25.6325               21.068       
       134.21395              26.483               20.171       
       134.88502              27.172               19.331       
       135.55944             27.7327               18.542       
       136.23724             28.1894               17.803       
       136.91842             28.5606               17.109       
       137.60302             28.8605               16.459       
       138.29103             29.1007               15.848       
       138.98249             29.2902               15.276       
        139.6774             29.4363               14.738       
       140.37579              29.545               14.234       
       141.07766             29.6211               13.76        
       141.78305             29.6681               13.315       
       142.49197             29.6888                12.9        
       143.20443             29.6881               12.519       
       143.92045             29.6719               12.169       
       144.64005             29.6442               11.846       
       145.36325              29.608               11.549       
       146.09007             29.5655               11.275       
       146.82052             29.5185               11.022       
       147.55462             29.4682               10.787       
       148.29239             29.4158               10.569       
       149.03386             29.3622               10.367       
       149.77903             29.3078               10.178       
       150.52792             29.2534               10.003       
       151.28056             29.1992               9.839        
       152.03696             29.1457               9.6858       
       152.79715              29.093               9.5424       
       153.56113             29.0414               9.4079       
       154.32894              28.991               9.2816       
       155.10058             28.9419               9.1628       
       155.87609             28.8941               9.051        
       156.65547             28.8478               8.9455       
       157.43875              28.803               8.8458       
       158.22594             28.7596               8.7516       
       159.01707             28.7177               8.6623       
       159.81215             28.6773               8.5777       
       160.61121             28.6382               8.4973       
       161.41427             28.6006               8.4208       
       162.22134             28.5644               8.348        
       163.03245             28.5295               8.2786       
       163.84761             28.4959               8.2124       
       164.66685             28.4635               8.1491       
       165.49018             28.4324               8.0885       
       166.31763             28.4024               8.0305       
       167.14922             28.3735               7.9749       
       167.98497             28.3457               7.9215       
       168.82489             28.3189               7.8702       
       169.66902              28.293               7.8208       
       170.51736             28.2681               7.7732       
       171.36995             28.2441               7.7274       
        172.2268             28.2209               7.6831       
       173.08793             28.1985               7.6404       
       173.95337             28.1769               7.5991       
       174.82314             28.1559               7.5591       
       175.69726             28.1357               7.5204       
       176.57574              28.116               7.4829       
       177.45862              28.097               7.4465       
       178.34591             28.0785               7.4112       
       179.23764             28.0606               7.3769       
       180.13383             28.0431               7.3436       
        181.0345             28.0261               7.3112       
       181.93967             28.0095               7.2796       
       182.84937             27.9933               7.2489       
       183.76362             27.9774               7.219        
       184.68244             27.9619               7.1898       
       185.60585             27.9467               7.1614       
       186.53388             27.9318               7.1336       
       187.46655             27.9171               7.1065       
       188.40388             27.9026               7.0801       
        189.3459             27.8883               7.0543       
       190.29263             27.8742               7.029        
       191.24409             27.8603               7.0043       
       192.20031             27.8464               6.9802       
       193.16131             27.8327               6.9566       
       194.12712              27.819               6.9335       
       195.09776             27.8054               6.911        
       196.07325             27.7918               6.8889       
       197.05361             27.7782               6.8673       
       198.03888             27.7645               6.8461       
       199.02907             27.7509               6.8254       
       200.02422             27.7372               6.8051       
       201.02434             27.7234               6.7853       
       202.02946             27.7095               6.7659       
       203.03961             27.6954               6.7469       
       204.05481             27.6812               6.7283       
       205.07508             27.6669                6.71        
       206.10046             27.6523               6.6922       
       207.13096             27.6375               6.6748       
       208.16661             27.6225               6.6577       
       209.20745             27.6071               6.6411       
       210.25348             27.5915               6.6248       
       211.30475             27.5756               6.6088       
       212.36128             27.5593               6.5932       
       213.42308             27.5425               6.578        
        214.4902             27.5254               6.5632       
       215.56265             27.5078               6.5487       
       216.64046             27.4897               6.5345       
       217.72366              27.471               6.5207       
       218.81228             27.4518               6.5072       
       219.90634             27.4319               6.4941       
       221.00588             27.4112               6.4814       
        222.1109             27.3899               6.4689       
       223.22146             27.3676               6.4569       
       224.33757             27.3445               6.4451       
       225.45925             27.3203               6.4337       
       226.58655              27.295               6.4227       
       227.71948             27.2684               6.412        
       228.85808             27.2404               6.4016       
       230.00237             27.2109               6.3916       
       231.15238             27.1796               6.3819       
       232.30814             27.1462               6.3726       
       233.46969             27.1104               6.3636       
       234.63703             27.0719               6.3549       
       235.81022             27.0301               6.3466       
       236.98927             26.9843               6.3386       
       238.17422             26.9336               6.331        
       239.36509             26.8767               6.3237       
       240.56191             26.8116               6.3167       
       241.76472             26.7352               6.3101       
       242.97355              26.642               6.3039       
       244.18841             26.5215               6.2979       
       245.40936             26.3473               6.2924       
        246.6364             26.0106               6.2871       
        247.2382             25.4816               6.2847       
        247.5618             25.4768               7.338        
       247.86959             25.8299               7.3379       
       249.10893             26.2469               7.3374       
       250.35448             26.4145               7.3374       
       251.60625             26.5167               7.3377       
       252.86428             26.5877               7.3383       
        254.1286             26.6399               7.3393       
       255.39925             26.6792               7.3407       
       256.67624             26.7086               7.3424       
       257.95962             26.7296               7.3445       
       259.24942             26.7429               7.347        
       260.54567             26.7477               7.3498       
        261.8484             26.7422               7.353        
       263.15764             26.7202               7.3565       
       264.47343             26.6594               7.3604       
       265.40451             26.4878               7.3634       
       265.79579             26.4932               7.6966       
       267.12477             26.7272               7.7027       
        268.4604             26.8103               7.7093       
        269.8027             26.8667               7.7162       
       271.15171             26.9111               7.7235       
       272.50747             26.9484               7.7311       
       273.87001             26.9811               7.739        
       275.23936             27.0104               7.7473       
       276.61556             27.0371               7.7559       
       277.99863             27.0617               7.7649       
       279.38863             27.0847               7.7741       
       280.78557             27.1063               7.7837       
        282.1895             27.1266               7.7935       
       283.60044              27.146               7.8037       
       285.01845             27.1645               7.8141       
       286.44354             27.1822               7.8249       
       287.87576             27.1992               7.836        
       289.31514             27.2157               7.8473       
       290.76171             27.2316               7.859        
       292.21552              27.247               7.8709       
        293.6766             27.2619               7.8831       
       295.14498             27.2764               7.8956       
       296.62071             27.2906               7.9084       
       298.10381             27.3044               7.9214       
       299.59433             27.3179               7.9347       
        301.0923             27.3311               7.9482       
       302.59776              27.344               7.962        
       304.11075             27.3566               7.9761       
        305.6313              27.369               7.9903       
       307.15946              27.381               8.0049       
       308.69526             27.3928               8.0196       
       310.23873             27.4042               8.0345       
       311.78993             27.4154               8.0497       
       313.34888             27.4262               8.0651       
       314.91562             27.4367               8.0807       
        316.4902             27.4468               8.0965       
       318.07265             27.4565               8.1124       
       319.66301             27.4657               8.1286       
       321.26133             27.4743               8.1449       
       322.86764             27.4823               8.1614       
       324.48197             27.4896               8.1781       
       326.10438             27.4959               8.1949       
       327.73491             27.5013               8.2118       
       329.37358             27.5053               8.2289       
       331.02045             27.5077               8.2462       
       332.67555              27.508               8.2635       
       334.33893             27.5057               8.281        
       336.01062             27.4998               8.2986       
       337.69068             27.4889               8.3163       
       339.37913             27.4705               8.334        
       341.07602             27.4395               8.3519       
        342.7814             27.3841               8.3698       
       344.49531             27.2578               8.3878       
       345.32318             27.0743               8.3965       
       346.07681             27.0834               8.9281       
       346.21779             27.1381               8.9296       
       347.94888             27.4045               8.9488       
       349.68862             27.5221               8.9681       
       351.43706             27.6054               8.9874       
       353.19425             27.6729               9.0067       
       354.96022             27.7316               9.0261       
       356.73502             27.7845               9.0454       
        358.5187             27.8336               9.0648       
       360.31129             27.8798               9.0841       
       362.11285             27.9239               9.1035       
       363.92341             27.9664               9.1228       
       365.74303             28.0077               9.142        
       367.57174             28.0479               9.1612       
        369.4096             28.0874               9.1804       
       371.25665             28.1263               9.1995       
       373.11293             28.1646               9.2185       
        374.9785             28.2026               9.2375       
       376.85339             28.2403               9.2563       
       378.73766             28.2777               9.2751       
       380.63135             28.3149               9.2938       
        382.5345              28.352               9.3123       
       384.44718              28.389               9.3307       
       386.36941              28.426               9.3489       
       388.30126             28.4366               9.367        
       390.24276             28.4735               9.3849       
       392.19398             28.5103               9.4026       
       394.15495             28.5472               9.4201       
       396.12572             28.5841               9.4375       
       398.10635             28.6211               9.4546       
       400.09688             28.6581               9.4715       
       402.09737             28.6952               9.4881       
       404.10785             28.7324               9.5045       
       406.12839             28.7696               9.5207       
       408.15904             28.8069               9.5366       
       410.19983             28.8443               9.5522       
       412.25083             28.8817               9.5676       
       414.31208             28.9193               9.5828       
       416.38364             28.9569               9.5976       
       418.46556             28.9946               9.6122       
       420.55789             29.0324               9.6265       
       422.66068             29.0702               9.6405       
       424.77398             29.1082               9.6542       
       426.89785             29.1462               9.6676       
       429.03234             29.1842               9.6807       
        431.1775             29.2224               9.6935       
       433.33339             29.2606               9.706        
       435.50006             29.2988               9.7181       
       437.67756             29.3372               9.7299       
       439.86595             29.3755               9.7413       
       442.06528             29.4139               9.7524       
        444.2756             29.4524               9.7632       
       446.49698             29.4908               9.7736       
       448.72947             29.5293               9.7836       
       450.97311             29.5678               9.7933       
       453.22798             29.6063               9.8026       
       455.49412             29.6449               9.8116       
       457.77159             29.6834               9.8201       
       460.06045             29.7219               9.8283       
       462.36075             29.7604               9.8361       
       464.67255             29.7988               9.8435       
       466.99592             29.8372               9.8505       
        469.3309             29.8756               9.8572       
       471.67755             29.9139               9.8634       
       474.03594             29.9522               9.8692       
       476.40612             29.9904               9.8747       
       478.78815             30.0285               9.8797       
       481.18209             30.0665               9.8843       
        483.588              30.1044               9.8885       
       486.00594             30.1423               9.8923       
       488.43597              30.18                9.8957       
       490.87815             30.2176               9.8987       
       493.33254              30.255               9.9012       
        495.7992             30.2923               9.9034       
        498.2782             30.3295               9.9051       
       500.76959             30.3665               9.9064       
       503.27344             30.4033               9.9073       
        505.7898              30.44                9.9078       
       508.31875             30.4765               9.9078       
       510.86035             30.5128               9.9075       
       513.41465             30.5488               9.9067       
       515.98172             30.5847               9.9055       
       518.56163             30.6204               9.9038       
       521.15444             30.6558               9.9016       
       523.76021             30.6909               9.8989       
       526.37901             30.7258               9.8957       
       529.01091             30.7604               9.892        
       531.65596             30.7946               9.8878       
       534.31424             30.8286               9.8831       
       536.98581             30.8622               9.878        
       539.67074             30.8954               9.8723       
        542.3691             30.9283               9.8662       
       545.08094             30.9607               9.8595       
       547.80635             30.9928               9.8524       
       550.54538             31.0244               9.8449       
        553.2981             31.0556               9.8368       
        556.0646             31.0863               9.8284       
       558.84492             31.1166               9.8194       
       561.63914             31.1464                9.81        
       564.44734             31.1757               9.8002       
       567.26958             31.2044                9.79        
       570.10592             31.2327               9.7793       
       572.95645             31.2604               9.7681       
       575.82123             31.2875               9.7566       
       578.70034             31.3141               9.7447       
       581.59384             31.3401               9.7323       
       584.50181             31.3655               9.7195       
       587.42432             31.3903               9.7064       
       590.36144             31.4144               9.6928       
       593.31325             31.4379               9.6789       
       596.27982             31.4608               9.6646       
       599.26122              31.483               9.6499       
       602.25752             31.5045               9.6349       
       605.26881             31.5253               9.6195       
       608.29515             31.5454               9.6037       
       611.33663             31.5647               9.5876       
       614.39331             31.5834               9.5712       
       617.46528             31.6013               9.5544       
        620.5526             31.6184               9.5373       
       623.65537             31.6347               9.5199       
       626.77364             31.6502               9.5021       
       629.90751              31.665               9.4841       
       633.05705             31.6789               9.4657       
       636.22234             31.6919               9.4471       
       639.40345             31.7041               9.4281       
       642.60046             31.7155               9.4089       
       645.81347             31.7259               9.3894       
       649.04253             31.7354               9.3696       
       652.28775              31.744               9.3496       
       655.54919             31.7517               9.3293       
       658.82693             31.7585               9.3088       
       662.12107             31.7642               9.288        
       665.43167              31.769               9.2669       
       668.75883             31.7727               9.2457       
       672.10262             31.7755               9.2242       
       675.46314             31.7772               9.2025       
       678.84045             31.7778               9.1805       
       682.23466             31.7774               9.1584       
       685.64583             31.7758               9.1361       
       689.07406             31.7731               9.1135       
       692.51943             31.7693               9.0908       
       695.98202             31.7643               9.0679       
       699.46194             31.7582               9.0448       
       702.95924             31.7508               9.0215       
       706.47404             31.7422               8.998        
       710.00641             31.7323               8.9743       
       713.55644             31.7211               8.9505       
       717.12423             31.7086               8.9265       
       720.70985             31.6948               8.9024       
        724.3134             31.6796               8.8781       
       727.93496              31.663               8.8537       
       731.57464              31.645               8.8292       
       735.23251             31.6255               8.8045       
       738.90867             31.6046               8.7797       
       742.60322             31.5867               8.7548       
       746.31623             31.5627               8.7298       
       750.04781             31.5371               8.7046       
       753.79805             31.5098               8.6794       
       757.56704             31.4809               8.654        
       761.35488             31.4502               8.6286       
       765.16165             31.4178               8.6031       
       768.98746             31.3836               8.5775       
        772.8324             31.3475               8.5518       
       776.69656             31.3095               8.526        
       780.58004             31.2695               8.5001       
       784.48294             31.2276               8.4742       
       788.40536             31.1836               8.4482       
       792.34738             31.1374               8.4222       
       796.30912             31.0891               8.3961       
       800.29067             31.0402               8.3699       
       804.29212             30.9873               8.3437       
       808.31358              30.932               8.3174       
       812.35515             30.8742               8.2911       
       816.41693             30.8138               8.2648       
       820.49901             30.7508               8.2384       
        824.6015             30.6851               8.212        
       828.72451             30.6166               8.1855       
       832.86813             30.5451               8.1591       
       837.03248             30.4705               8.1326       
       841.21764             30.3928               8.106        
       845.42373             30.3119               8.0795       
       849.65084             30.2275               8.053        
        853.8991             30.1396               8.0264       
       858.16859              30.048               7.9998       
       862.45944             29.9525               7.9733       
       866.77173             29.8531               7.9467       
       871.10559             29.7494               7.9201       
       875.46112             29.6414               7.8936       
       879.83843             29.5288               7.867        
       884.23762             29.4113               7.8404       
       888.65881             29.2888               7.8139       
        893.1021             29.1611               7.7873       
       897.56761             29.0277               7.7608       
       902.05545             28.8884               7.7343       
       906.56573              28.743               7.7078       
       911.09856             28.5909               7.6814       
       915.65405              28.432               7.6549       
       920.23232             28.2656               7.6285       
       924.83348             28.0915               7.6021       
       929.45765              27.909               7.5757       
       934.10494             27.7176               7.5494       
       938.77546             27.5167               7.5231       
       943.46934             27.3056               7.4969       
       948.18668             27.0836               7.4706       
       952.92762             26.8498               7.4445       
       957.69226             26.6032               7.4183       
       962.48072             26.3429               7.3922       
       967.29312             26.0676               7.3661       
       972.12959             25.7759               7.3401       
       976.99023             25.4663               7.3142       
       981.87519              25.137               7.2882       
       986.78456              24.786               7.2624       
       991.71848             24.4108               7.2365       
       996.67708             24.0086               7.2108       
       1001.6605             23.8623               7.1801       
       1006.6688              23.41                7.1397       
       1011.7021             22.8983               7.0995       
       1016.7606             22.3385               7.0596       
       1021.8444             21.7245               7.0199       
       1026.9536             21.0471               6.9806       
       1032.0884             20.2942               6.9414       
       1037.2489             19.4493               6.9025       
       1042.4351             18.4895               6.8639       
       1047.6473             17.3824               6.8256       
       1052.8855             16.0787               6.7874       
       1058.1499             14.4986               6.7496       
       1063.4407             12.4979               6.7118       
       1068.7579             9.76901               6.6735       
       1074.1017             5.41125               6.6354       
       1079.4722             -8.4845               6.5977       
       1080.0822             -20.0658              6.5934       
       1080.3177             -20.4132              26.48        
       1084.8695             2.37973               26.307       
       1090.2939             6.31812               26.104       
       1095.7454             7.54898               25.903       
       1101.2241             6.54865               25.703       
        1105.813             -5.44034              25.538       
       1106.1869             -5.54165              38.594       
       1106.7302             0.293779              38.564       
       1112.2639             10.7026               38.261       
       1117.8252             14.5771               37.961       
       1123.4143             17.2549               37.663       
       1129.0314             19.3618               37.368       
       1134.6765             21.1195               37.075       
       1140.3499             22.6362               36.784       
       1146.0517              23.974               36.495       
       1151.7819             25.1724               36.209       
       1157.5408             26.2585               35.926       
       1163.3285             27.2515               35.644       
       1169.1452             28.1659               35.365       
       1174.9909             29.0127               35.088       
       1180.8659             29.8008               34.814       
       1186.7702              30.537               34.541       
        1192.704             31.2271               34.271       
       1198.6676             31.8758               34.003       
       1204.6609              32.487               33.737       
       1210.6842              33.064               33.473       
       1216.7376             33.6098               33.211       
       1222.8213             34.1267               32.952       
       1228.9354             34.6168               32.695       
       1235.0801              35.082               32.439       
       1241.2555             35.5238               32.186       
       1247.4618             35.9436               31.935       
       1253.6991             36.3426               31.685       
       1259.9676             36.7218               31.438       
       1266.2674             37.0821               31.193       
       1272.5988             37.4242               30.95        
       1278.9618             37.7489               30.708       
       1285.3566             38.0566               30.469       
       1291.7833             38.3478               30.232       
       1298.2423             38.6227               29.996       
       1304.7335             38.8814               29.762       
       1311.2571             39.1242               29.531       
       1317.8134             39.3508               29.301       
       1324.4025             39.5609               29.073       
       1331.0245             39.7542               28.847       
       1337.6796             39.9298               28.622       
        1344.368             40.0866                28.4        
       1351.0899             40.2233               28.179       
       1357.8453             40.3376               27.96        
       1364.6345             40.4264               27.743       
       1371.4577             40.4855               27.527       
        1378.315             40.5082               27.313       
       1385.2066             40.4839               27.101       
       1392.1326             40.3947               26.891       
       1399.0933             40.2067               26.682       
       1406.0887             39.8419               26.475       
       1413.1192             39.0431               26.271       
       1418.7409             36.6193               26.11        
       1420.1848             35.1582               30.507       
       1420.8592              36.613               30.484       
       1427.2857              39.571               30.261       
       1434.4221             40.7074               30.016       
       1441.5942             41.4447               29.774       
       1448.8022             42.0074               29.534       
       1456.0462             42.4677               29.296       
       1463.3265             42.8577               29.061       
       1470.6431             43.1941               28.827       
       1477.9963             43.4859               28.595       
       1485.3863             43.7373               28.365       
       1492.8132             43.9488               28.145       
       1500.2773              44.129               27.938       
       1507.7787             44.2753               27.734       
       1515.3176             44.3773               27.532       
       1522.8942             44.4127               27.333       
       1530.5086             44.3185               27.137       
       1538.1612             43.7226               26.943       
       1539.5028             43.3145               26.909       
       1541.8971             43.3563               28.725       
        1545.852             44.3465               28.615       
       1553.5812             45.1079               28.403       
       1561.3491              45.59                28.193       
       1569.1559             45.9703               27.986       
       1577.0017             46.2944               27.781       
       1584.8867              46.581               27.579       
       1592.8111             46.8395               27.379       
       1600.7752             47.0753               27.181       
        1608.779             47.2916               26.985       
       1616.8229             47.4894               26.792       
        1624.907             47.6728               26.611       
       1633.0316             47.8461               26.433       
       1641.1967              48.009               26.257       
       1649.4027             48.1611               26.084       
       1657.6497             48.3022               25.913       
        1665.938             48.4312               25.744       
       1674.2677             48.5467               25.577       
        1682.639             48.6459               25.412       
       1691.0522             48.7236               25.249       
       1699.5075             48.7694               25.089       
        1708.005             48.7575               24.93        
        1716.545             48.5899               24.773       
       1720.3536             48.3059               24.704       
       1725.1278              48.363               25.796       
       1725.2464             48.3838               25.794       
       1733.7534             49.0945               25.638       
       1742.4222             49.4588               25.482       
       1751.1343             49.7386               25.327       
       1759.8899             49.9783               25.174       
       1768.6894             50.1939               25.022       
       1777.5328             50.3931               24.872       
       1786.4205              50.58                24.724       
       1795.3526             50.7574               24.576       
       1804.3294             50.9269               24.43        
        1813.351             51.0899               24.286       
       1822.4178              51.248               24.144       
       1831.5299             51.4021               24.004       
       1840.6875             51.5528               23.864       
       1849.8909             51.7004               23.723       
       1859.1404             51.8434               23.578       
       1868.4361              51.982               23.435       
       1877.7783             52.1169               23.292       
       1887.1672             52.2482               23.151       
        1896.603             52.3764               23.01        
        1906.086             52.5017               22.871       
       1915.6165             52.6242               22.733       
       1925.1945             52.7442               22.596       
       1934.8205             52.8619               22.459       
       1944.4946             52.9773               22.324       
       1954.2171             53.0907               22.189       
       1963.9882             53.2022               22.056       
       1973.8081             53.3119               21.923       
       1983.6772              53.42                21.791       
       1993.5955             53.5268               21.66        
       2003.5635             53.6323               21.529       
       2013.5813             53.7358               21.396       
       2023.6492              53.837               21.263       
       2033.7675              53.936               21.131       
       2043.9363             54.0331               20.999       
        2054.156             54.1284               20.869       
       2064.4268             54.2218               20.739       
       2074.7489             54.3136               20.61        
       2085.1227             54.4038               20.482       
       2095.5483             54.4924               20.354       
        2106.026             54.5796               20.227       
       2116.5562             54.6653               20.101       
       2127.1389             54.7497               19.976       
       2137.7746             54.8329               19.851       
       2148.4635             54.9148               19.727       
       2159.2058             54.9955               19.604       
       2170.0018             55.2956               19.476       
       2180.8519             55.3737               19.348       
       2191.7561             55.4502               19.221       
       2202.7149              55.525               19.095       
       2213.7285             55.7481               18.969       
       2224.7971             55.8202               18.841       
       2235.9211             55.8904               18.713       
       2247.1007             55.9589               18.586       
       2258.3362             56.0256               18.459       
       2269.6279             56.0905               18.333       
        2280.976             56.1536               18.208       
       2292.3809             56.2152               18.084       
       2303.8428             56.2753               17.96        
        2315.362             56.3339               17.838       
       2326.9388              56.391               17.716       
       2338.5735             56.4468               17.595       
       2350.2664             56.5012               17.475       
       2362.0177             56.5543               17.355       
       2373.8278             56.6062               17.237       
        2385.697             56.6569               17.119       
       2397.6254             56.7064               17.002       
       2409.6136             56.7547               16.886       
       2421.6616              56.802               16.771       
       2433.7699             56.8482               16.654       
       2445.9388             56.8933               16.538       
       2458.1685             56.9372               16.423       
       2470.4593             56.9801               16.308       
       2482.8116             57.0218               16.194       
       2495.2257             57.0626               16.082       
       2507.7018             57.1023               15.97        
       2520.2403             57.1411               15.858       
       2532.8415             57.1789               15.748       
       2545.5057             57.2158               15.639       
       2558.2333             57.2518               15.53        
       2571.0244             57.2869               15.422       
       2583.8796             57.3213               15.315       
        2596.799             57.3548               15.209       
       2609.7829             57.3875               15.104       
       2622.8319             57.4195                15.0        
        2635.946             57.4507               14.896       
       2649.1257             57.4813               14.794       
       2662.3714             57.5112               14.692       
       2675.6832             57.5404               14.591       
       2689.0617             57.5691               14.49        
        2702.507             57.5971               14.391       
       2716.0195             57.6247               14.292       
       2729.5996             57.6516               14.194       
       2743.2476             57.6781               14.097       
       2756.9638             57.7042               14.001       
       2770.7486             57.7298               13.905       
       2784.6024             57.7551               13.811       
       2798.5254              57.78                13.717       
        2812.518             57.8046               13.624       
       2826.5806             57.8289               13.531       
       2840.7135             57.9556               13.44        
       2854.9171             57.9802               13.347       
       2869.1917             58.0046               13.255       
       2883.5376             58.0289               13.164       
       2897.9553             58.0531               13.073       
       2912.4451             58.0774               12.983       
       2927.0073             58.1021               12.894       
       2941.6424             58.1275               12.806       
       2956.3506              58.154               12.718       
       2971.1323              58.183               12.632       
        2985.988             58.2179               12.545       
       3000.9179             58.2834               12.459       
       3015.9225              58.301               12.36        
       3031.0021             58.3166               12.262       
       3046.1571             58.3307               12.165       
       3061.3879             58.3436               12.069       
       3076.6949             58.3556               11.973       
       3092.0783             58.4146               11.877       
       3107.5387             58.4249               11.782       
       3123.0764             58.4343               11.687       
       3138.6918             58.4427               11.594       
       3154.3853             58.4503               11.501       
       3170.1572              58.457               11.409       
        3186.008             58.4629               11.318       
        3201.938             58.4681               11.227       
       3217.9477             58.4725               11.138       
       3234.0374             58.4763               11.049       
       3250.2076             58.4793               10.961       
       3266.4587             58.4817               10.874       
        3282.791             58.4834               10.788       
       3299.2049             58.4846               10.702       
       3315.7009             58.4851               10.617       
       3332.2794              58.485               10.533       
       3348.9408             58.4844               10.45        
       3365.6856             58.4832               10.367       
        3382.514             58.4816               10.286       
       3399.4265             58.4793               10.205       
       3416.4237             58.4766               10.124       
       3433.5058             58.4735               10.045       
       3450.6733             58.4903               9.9655       
       3467.9267             58.4863               9.8865       
       3485.2663             58.4818               9.8083       
       3502.6927             58.4768               9.7308       
       3520.2061             58.4713               9.654        
       3537.8072             58.4653               9.5778       
       3555.4962             58.4588               9.5024       
       3573.2737             58.4519               9.4276       
        3591.14              58.4445               9.3534       
       3609.0957             58.4367               9.2799       
       3627.1412             58.4285               9.2071       
       3645.2769             58.4198               9.1349       
       3663.5033             58.4107               9.0634       
       3681.8208             58.4012               8.9925       
       3700.2299             58.3914               8.9222       
       3718.7311             58.3811               8.8525       
       3737.3247             58.3704               8.7834       
       3756.0114             58.3594               8.715        
       3774.7914              58.348               8.6472       
       3793.6654             58.3362               8.5799       
       3812.6337             58.3241               8.5132       
       3831.6969             58.3116               8.4472       
       3850.8554             58.2987               8.3817       
       3870.1096             58.2855               8.3167       
       3889.4602              58.272               8.2524       
       3908.9075             58.2581               8.1886       
        3928.452             58.2439               8.1254       
       3948.0943             58.2293               8.0627       
       3967.8347             58.2144               8.0005       
       3987.6739             58.1992               7.939        
        4055.024             58.4761               7.736        
        4334.821              58.18                6.9839       
        4633.924             57.8318               6.3137       
        4953.664             57.4103               5.6849       
        5295.467             56.8644               5.1162       
        5660.855             56.1302               4.6131       
        6051.453             55.0264               4.1674       
        6469.004             52.7472               3.756        
        6581.876              51.376               3.6557       
        6682.619             48.2974               3.5699       
        6709.484             44.7163               3.5469       
        6749.781             48.2774               10.486       
        6850.524             51.3435               10.155       
        6915.365             52.1218               9.9509       
        7165.564             52.8838               9.2642       
        7275.241             51.8181               9.0154       
        7304.488             50.1326               8.9518       
        7348.359             52.0594               12.348       
        7392.525             53.0809               12.208       
        7458.036             53.8886               12.005       
        7582.064             54.6545               11.638       
        7698.116             54.5824               11.318       
        7729.063             53.8405               11.241       
        7775.484             54.9428               12.884       
        7891.536             56.2108               12.596       
        7902.609              56.292               12.569       
        8447.89              58.6461               11.38        
        9030.794             60.0049               10.264       
        9653.919             60.8642               9.183        
        10320.04             61.4251               8.2105       
        11032.12             61.7932               7.3402       
        11793.34             62.0339               6.5679       
        12607.08             62.1879               5.882        
        13476.97             62.3534               5.2711       
        14406.88             62.3992               4.7077       
        15400.95             62.4411               4.2005       
        16463.62             62.4459               3.7379       
        17599.61             62.3903               3.3284       
        18813.98             62.3177               2.9663       
        20112.15             62.2344               2.646        
        21499.88              62.144               2.3624       
        22983.38             62.0492               2.1111       
        24569.23             61.9516               1.8879       
        26264.5              61.8538               1.6898       
        28076.76             61.7569               1.5024       
        30014.05             61.6432               1.3321       
        32085.02             61.5154               1.1796       
        34298.89             61.3696               1.0428       
        36665.51             61.1938              0.91997       
        39195.43             60.9665              0.81156       
        41899.92             60.6307              0.71648       
        44791.01             59.9454              0.63304       
        45897.52             59.3118              0.60513       
        46600.03             58.1331              0.58841       
        46787.37              56.721              0.58407       
        47068.37             58.1477               3.3575       
        47770.89             59.4373               3.2817       
        47881.59             59.5434                3.27        
        51185.42             60.9184               2.9424       
        54717.21             61.4636               2.6381       
        58492.7              61.7813               2.3625       
        62528.7              61.9873               2.1137       
        66843.18             62.1242               1.8891       
        71455.36             62.2165               1.6883       
        76385.78             62.2786               1.5088       
        81656.4              62.3211               1.3466       
        87290.69             62.3457               1.1983       
        93313.74             62.3573               1.0664       
        99752.39             62.3883               0.9456       
        106635.3              62.381              0.83837       
        113993.1             62.3684              0.74336       
        121858.7             62.3525              0.65918       
        130266.9             62.3345              0.58459       
        139255.3             62.3153              0.51848       
        148864.0             62.2955              0.45988       
        159135.6             62.2757              0.40794       
        170115.9             62.2562              0.36189       
        181853.9             62.2371              0.32107       
        194401.8             62.2187              0.28487       
        207815.6              62.201              0.25307       
        222154.8             62.1845              0.22533       
        237483.5             62.1693              0.20065       
        253869.9             62.1551              0.17868       
        271386.9             62.1419              0.15913       
        290112.6             62.1297              0.14172       
        310130.4             62.1185              0.12623       
        331529.4             62.1081              0.11243       
        354404.9             62.0985              0.10015       
        378858.8             62.0896              0.089218      
        405000.1             62.0815              0.079481      
        432945.1             62.0741              0.07081       
