# Ta
# Form Factors from Chantler Tables
# DOI: https://dx.doi.org/10.18434/T4HS32
# automatically retrived 2019-02-27 using URL https://physics.nist.gov/cgi-bin/ffast/ffast.pl
#
# Z = 73
# f_rel = -1.4008 e/atom  (Relativistic correction estimate)
# f_NT = -0.016156 e/atom (Nuclear Thomson correction)


#        E (eV)            f1 (e/atom)          f2 (e/atom)     
         5.586               7.28675                0.0         
         5.6715              6.76355                0.0         
         5.6943              6.16326                0.0         
         5.7285              6.76103               1.1669       
         5.814               7.26809               1.1599       
         10.69               7.69658               2.5477       
        11.42761              7.8067               2.8946       
        12.21612             7.98392               3.2454       
        13.05903             8.23109               3.5808       
        13.9601              8.54464               3.8799       
        14.92335             8.91402               4.1228       
        15.95306             9.32207               4.2927       
        17.05382             9.74633               4.3785       
        18.23053              10.186               4.3754       
        19.48844             10.5634               4.2858       
        20.83314             10.8749               4.1184       
        22.27063             11.0871               3.8864       
        23.8073              11.1318               3.6051       
          24.5               11.0153               3.4725       
         24.875              10.7494               3.4002       
         24.975              10.4085               3.3809       
         25.125              10.7805               4.0323       
        25.45001             11.0837               3.9475       
          25.5               11.1091               3.9346       
        27.20606             11.3983               3.5119       
        29.08327             11.2851               3.1071       
        31.09002             10.8955               2.7577       
        33.23523             10.1007               2.4597       
        35.52846             7.89513               2.2126       
         35.672              7.57475               2.1993       
         36.218              5.03659               2.151        
        36.3636              1.99183               2.1387       
         36.582               5.1986               8.1125       
         37.128              7.98196               7.8708       
        37.97993             9.52533               7.5184       
        40.60054             11.1476               6.5983       
        43.40198             11.1433               5.7736       
         44.002              10.8095               5.616        
        44.6755              9.67052               5.4478       
        44.8551              8.21964               5.4045       
        45.1245              9.77292               8.2372       
         45.798              11.1684               8.0408       
        46.39671              11.716               7.8751       
        49.59809             12.9598               7.1262       
        53.02035             13.4527               6.4845       
        56.67876             13.5799               5.9403       
        60.58959             13.4579               5.5463       
        64.77028              13.168               5.3333       
        69.23942             12.7668               5.3146       
         69.678               12.723               5.323        
        70.7445              12.6034               5.3504       
        71.0289              12.5498               5.3593       
        71.4555              12.5391               5.4288       
         72.522              12.4678               5.473        
        74.01695             12.3489               5.5495       
        79.12411             12.1364               5.9225       
        84.58368             11.7681               6.4758       
        90.41995             11.4742               7.1961       
        96.65893             11.2899               8.0678       
         100.0               12.8748               8.5641       
         100.5               12.8726               8.6395       
        101.0025             12.8714               8.7155       
       101.50751             12.8712               8.7918       
       102.01505             12.8719               8.8686       
       102.52513             12.8735               8.9457       
       103.03775             12.8761               9.0233       
       103.55294             12.8797               9.1013       
        104.0707             12.8842               9.1796       
       104.59106             12.8896               9.2583       
       105.11401              12.896               9.3373       
       105.63958             12.9034               9.4166       
       106.16778             12.9116               9.4962       
       106.69862             12.9209               9.5762       
       107.23211              12.931               9.6566       
       107.76827             12.9422               9.7375       
       108.30712             12.9542               9.8187       
       108.84865             12.9673               9.9001       
       109.39289             12.9802               9.9818       
       109.93986             12.9951               10.064       
       110.48956              13.011               10.146       
       111.04201             13.0279               10.228       
       111.59722             13.0457               10.31        
        112.1552             13.0645               10.393       
       112.71598             13.0842               10.476       
       113.27956             13.1049               10.559       
       113.84596             13.1265               10.642       
       114.41519              13.149               10.725       
       114.98726             13.1725               10.808       
        115.5622             13.1969               10.891       
       116.14001             13.2223               10.974       
       116.72071             13.2486               11.058       
       117.30431             13.2758               11.141       
       117.89083             13.3039               11.225       
       118.48029              13.333               11.308       
       119.07269              13.363               11.391       
       119.66805             13.3939               11.475       
       120.26639             13.4257               11.558       
       120.86772             13.4584               11.642       
       121.47206              13.492               11.725       
       122.07942             13.5265               11.808       
       122.68982              13.562               11.891       
       123.30327             13.5983               11.975       
       123.91979             13.6354               12.058       
       124.53939             13.6735               12.141       
       125.16208             13.7124               12.223       
       125.78789             13.7522               12.306       
       126.41683             13.7929               12.388       
       127.04892             13.8344               12.471       
       127.68416             13.8768               12.553       
       128.32258              13.92                12.635       
       128.96419              13.964               12.717       
       129.60902             14.0089               12.799       
       130.25706             14.0546               12.88        
       130.90835             14.1012               12.961       
       131.56289             14.1485               13.042       
        132.2207             14.1967               13.123       
       132.88181             14.2456               13.203       
       133.54621             14.2954               13.284       
       134.21395             14.3459               13.364       
       134.88502             14.3974               13.443       
       135.55944             14.4494               13.523       
       136.23724             14.5023               13.602       
       136.91842             14.5559               13.681       
       137.60302             14.6102               13.759       
       138.29103             14.6653               13.837       
       138.98249             14.7211               13.915       
        139.6774             14.7776               13.993       
       140.37579             14.8348               14.07        
       141.07766             14.8928               14.147       
       141.78305             14.9514               14.223       
       142.49197             15.0108               14.299       
       143.20443             15.0708               14.375       
       143.92045             15.1314               14.45        
       144.64005             15.1928               14.525       
       145.36325             15.2548                14.6        
       146.09007             15.3174               14.674       
       146.82052             15.3807               14.747       
       147.55462             15.4445               14.821       
       148.29239              15.509               14.893       
       149.03386             15.5741               14.966       
       149.77903             15.6398               15.038       
       150.52792             15.7061               15.109       
       151.28056             15.7729               15.18        
       152.03696             15.8404               15.251       
       152.79715             15.9083               15.321       
       153.56113             15.9768               15.391       
       154.32894             16.0459               15.46        
       155.10058             16.1154               15.529       
       155.87609             16.1855               15.597       
       156.65547             16.2561               15.664       
       157.43875             16.3272               15.732       
       158.22594             16.3987               15.798       
       159.01707             16.4707               15.865       
       159.81215             16.5432               15.93        
       160.61121             16.6161               15.996       
       161.41427             16.6895               16.06        
       162.22134             16.7632               16.125       
       163.03245             16.8374               16.188       
       163.84761              16.912               16.251       
       164.66685              16.987               16.314       
       165.49018             17.0623               16.376       
       166.31763              17.138               16.438       
       167.14922             17.2141               16.499       
       167.98497             17.2905               16.559       
       168.82489             17.3672               16.619       
       169.66902             17.4443               16.679       
       170.51736             17.5216               16.737       
       171.36995             17.5992               16.796       
        172.2268             17.6771               16.854       
       173.08793             17.7552               16.911       
       173.95337             17.8336               16.967       
       174.82314             17.9123               17.024       
       175.69726             17.9911               17.079       
       176.57574             18.0701               17.134       
       177.45862             18.1494               17.189       
       178.34591             18.2288               17.243       
       179.23764             18.3083               17.296       
       180.13383              18.388               17.349       
        181.0345             18.4678               17.401       
       181.93967             18.5477               17.453       
       182.84937             18.6277               17.504       
       183.76362             18.7078               17.554       
       184.68244             18.7879               17.604       
       185.60585              18.868               17.654       
       186.53388             18.9482               17.703       
       187.46655             19.0283               17.751       
       188.40388             19.1084               17.799       
        189.3459             19.1884               17.846       
       190.29263             19.2683               17.893       
       191.24409             19.3481               17.939       
       192.20031             19.4278               17.984       
       193.16131             19.5073               18.03        
       194.12712             19.5866               18.074       
       195.09776             19.6657               18.118       
       196.07325             19.7444               18.161       
       197.05361             19.8229               18.204       
       198.03888              19.901               18.247       
       199.02907             19.9787               18.288       
       200.02422             20.0559               18.33        
       201.02434             20.1327               18.37        
       202.02946             20.2088               18.41        
       203.03961             20.2844               18.45        
       204.05481             20.3592               18.489       
       205.07508             20.4332               18.528       
       206.10046             20.5063               18.566       
       207.13096             20.5785               18.603       
       208.16661             20.6495               18.64        
       209.20745             20.7192               18.677       
       210.25348             20.7876               18.713       
       211.30475             20.8543               18.748       
       212.36128             20.9192               18.783       
       213.42308             20.9841               18.818       
        214.4902             21.0445               18.852       
       215.56265             21.1022               18.885       
       216.64046             21.1565               18.918       
       217.72366              21.207               18.951       
       218.81228             21.2528               18.983       
       219.90634             21.2929               19.014       
       221.00588             21.3258               19.045       
        222.1109             21.3495               19.076       
       223.22146             21.3608               19.106       
       224.33757             21.3548               19.136       
       225.45925             21.3227               19.165       
       226.58655              21.246               19.194       
       227.71948             21.0755               19.222       
       228.85808             20.5488               19.25        
       229.12551             20.1182               19.256       
        229.4745             20.1515               20.798       
       230.00237             20.8776               20.801       
       231.15238             21.4396               20.809       
       232.30814             21.7556               20.816       
       233.46969             21.9858               20.822       
       234.63703             22.1673               20.829       
       235.81022             22.3129               20.836       
       236.98927             22.4251               20.842       
       238.17422             22.4973               20.848       
       239.36509             22.5048               20.854       
       240.56191             22.3329               20.86        
       241.11348             21.9165               20.862       
       241.48653             21.9736               21.999       
       241.76472              22.345               21.997       
       242.97355             22.9759               21.985       
       244.18841             23.3313               21.974       
       245.40936             23.6106               21.963       
        246.6364             23.8518               21.951       
       247.86959             24.0694               21.94        
       249.10893             24.2706               21.929       
       250.35448             24.4594               21.918       
       251.60625             24.6386               21.907       
       252.86428             24.8097               21.895       
        254.1286             24.9737               21.875       
       255.39925             25.1317               21.856       
       256.67624             25.2844               21.837       
       257.95962             25.4326               21.819       
       259.24942             25.5769               21.801       
       260.54567             25.7176               21.784       
        261.8484             25.8552               21.767       
       263.15764             25.9882               21.743       
       264.47343             26.1181               21.719       
       265.79579             26.2449               21.696       
       267.12477              26.369               21.673       
        268.4604             26.4904               21.65        
        269.8027             26.6096               21.629       
       271.15171             26.7268               21.608       
       272.50747             26.8421               21.587       
       273.87001             26.9557               21.567       
       275.23936             27.0677               21.548       
       276.61556             27.1783               21.529       
       277.99863             27.2875               21.51        
       279.38863             27.3954               21.492       
       280.78557             27.5021               21.474       
        282.1895             27.6077               21.457       
       283.60044             27.7122               21.439       
       285.01845             27.8157               21.422       
       286.44354             27.9182               21.406       
       287.87576             28.0198               21.389       
       289.31514             28.1205               21.373       
       290.76171             28.2203               21.357       
       292.21552             28.3193               21.341       
        293.6766             28.4174               21.325       
       295.14498             28.5149               21.309       
       296.62071             28.6115               21.294       
       298.10381             28.7074               21.278       
       299.59433             28.8026               21.263       
        301.0923             28.8971               21.248       
       302.59776             28.9909               21.233       
       304.11075             29.0841               21.218       
        305.6313             29.1766               21.203       
       307.15946             29.2684               21.188       
       308.69526             29.3596               21.173       
       310.23873             29.4502               21.159       
       311.78993             29.5401               21.144       
       313.34888             29.6295               21.129       
       314.91562             29.7182               21.115       
        316.4902             29.8063                21.1        
       318.07265             29.8938               21.086       
       319.66301             29.9807               21.071       
       321.26133              30.067               21.057       
       322.86764             30.1527               21.043       
       324.48197             30.2378               21.028       
       326.10438             30.3224               21.014       
       327.73491             30.4063                21.0        
       329.37358             30.4896               20.986       
       331.02045             30.5722               20.971       
       332.67555             30.6543               20.957       
       334.33893             30.7358               20.943       
       336.01062             30.8166               20.929       
       337.69068             30.8968               20.915       
       339.37913             30.9763               20.901       
       341.07602             31.0552               20.887       
        342.7814             31.1333               20.873       
       344.49531             31.2108               20.859       
       346.21779             31.2876               20.845       
       347.94888             31.3637               20.832       
       349.68862              31.439               20.818       
       351.43706             31.5135               20.804       
       353.19425             31.5871               20.791       
       354.96022              31.66                20.777       
       356.73502             31.7319               20.764       
        358.5187             31.8029               20.75        
       360.31129             31.8729               20.737       
       362.11285             31.9419               20.723       
       363.92341             32.0097               20.71        
       365.74303             32.0764               20.697       
       367.57174             32.1417               20.684       
        369.4096             32.2056               20.67        
       371.25665              32.268               20.657       
       373.11293             32.3287               20.644       
        374.9785             32.3875               20.631       
       376.85339             32.4442               20.619       
       378.73766             32.4985               20.606       
       380.63135              32.55                20.593       
        382.5345             32.5984               20.58        
       384.44718             32.6431               20.568       
       386.36941             32.6833               20.555       
       388.30126             32.7181               20.543       
       390.24276              32.746               20.531       
       392.19398             32.7651               20.518       
       394.15495             32.7724               20.506       
       396.12572             32.7627               20.494       
       398.10635              32.727               20.482       
       400.09688             32.6455               20.47        
       402.09737             32.4609               20.458       
        403.9782             31.8647               20.447       
       404.10785             31.7442               20.446       
       405.02181             31.9057               21.823       
       406.12839             32.4501               21.819       
       408.15904             32.8876               21.811       
       410.19983             33.1646               21.803       
       412.25083             33.3823               21.795       
       414.31208             33.5687               21.788       
       416.38364             33.7359               21.78        
       418.46556              33.89                21.772       
       420.55789             34.0346               21.765       
       422.66068              34.172               21.757       
       424.77398             34.3037               21.75        
       426.89785             34.4309               21.743       
       429.03234             34.5542               21.736       
        431.1775             34.6744               21.729       
       433.33339             34.7917               21.721       
       435.50006             34.9065               21.714       
       437.67756              35.019               21.707       
       439.86595             35.1294               21.701       
       442.06528             35.2378               21.694       
        444.2756             35.3441               21.687       
       446.49698             35.4482               21.68        
       448.72947              35.55                21.673       
       450.97311             35.6489               21.667       
       453.22798             35.7443               21.66        
       455.49412             35.8349               21.653       
       457.77159             35.9182               21.647       
       460.06045             35.9887               21.64        
       462.36075             36.0289               21.633       
       464.12139             35.9738               21.628       
       464.67255             35.8159               21.627       
       465.47861             36.0396               21.972       
       466.99592             36.2432               21.969       
        469.3309              36.437               21.964       
       471.67755             36.5981               21.915       
       474.03594             36.7442               21.864       
       476.40612             36.8813               21.813       
       478.78815             37.0123               21.762       
       481.18209             37.1385               21.712       
        483.588              37.2609               21.661       
       486.00594              37.38                21.61        
       488.43597             37.4963               21.559       
       490.87815              37.61                21.509       
       493.33254             37.7214               21.458       
        495.7992             37.8307               21.407       
        498.2782             37.9379               21.357       
       500.76959             38.0432               21.306       
       503.27344             38.1467               21.256       
        505.7898             38.2484               21.205       
       508.31875             38.3484               21.154       
       510.86035             38.4467               21.104       
       513.41465             38.5433               21.054       
       515.98172             38.6383               21.003       
       518.56163             38.7317               20.953       
       521.15444             38.8234               20.902       
       523.76021             38.9134               20.852       
       526.37901             39.0017               20.801       
       529.01091             39.0882               20.751       
       531.65596             39.1728               20.701       
       534.31424             39.2553               20.65        
       536.98581             39.3356                20.6        
       539.67074             39.4135               20.549       
        542.3691             39.4885               20.499       
       545.08094             39.5603               20.448       
       547.80635             39.6281               20.398       
       550.54538              39.691               20.347       
        553.2981              39.747               20.297       
        556.0646             39.7932               20.246       
       558.84492             39.8231               20.196       
       561.63914             39.8191               20.145       
       564.44734             39.6866               20.095       
       564.57826             39.6682               20.092       
       566.42179             39.7246               20.59        
       567.26958             39.8605               20.575       
       570.10592              40.108               20.525       
       572.95645             40.2747               20.475       
       575.82123             40.4145               20.425       
       578.70034             40.5403               20.375       
       581.59384             40.6575               20.325       
       584.50181             40.7687               20.275       
       587.42432             40.8755               20.225       
       590.36144             40.9788               20.175       
       593.31325             41.0792               20.125       
       596.27982             41.1773               20.074       
       599.26122             41.2734               20.024       
       602.25752             41.3676               19.973       
       605.26881             41.4602               19.923       
       608.29515             41.5515               19.872       
       611.33663             41.6414               19.822       
       614.39331              41.73                19.771       
       617.46528             41.8176               19.72        
        620.5526             41.9041               19.669       
       623.65537             41.9897               19.619       
       626.77364             42.0743               19.568       
       629.90751              42.158               19.516       
       633.05705             42.2409               19.465       
       636.22234             42.3229               19.414       
       639.40345             42.4041               19.363       
       642.60046             42.4846               19.311       
       645.81347             42.5643               19.259       
       649.04253             42.6433               19.208       
       652.28775             42.7216               19.156       
       655.54919             42.7991               19.104       
       658.82693              42.876               19.052       
       662.12107             42.9523                19.0        
       665.43167             43.0278               18.948       
       668.75883             43.1027               18.895       
       672.10262              43.177               18.843       
       675.46314             43.2507               18.79        
       678.84045             43.3237               18.738       
       682.23466             43.3961               18.685       
       685.64583             43.4679               18.632       
       689.07406              43.537               18.579       
       692.51943             43.6076               18.526       
       695.98202             43.6776               18.472       
       699.46194             43.7471               18.419       
       702.95924             43.8159               18.365       
       706.47404             43.8842               18.312       
       710.00641             43.9519               18.258       
       713.55644              44.019               18.204       
       717.12423             44.0855               18.15        
       720.70985             44.1515               18.096       
        724.3134             44.2237               18.042       
       727.93496             44.2886               17.988       
       731.57464             44.3529               17.933       
       735.23251             44.4167               17.879       
       738.90867             44.4799               17.824       
       742.60322             44.5426               17.77        
       746.31623             44.6047               17.715       
       750.04781             44.6662               17.66        
       753.79805             44.7272               17.605       
       757.56704             44.7876               17.55        
       761.35488             44.8475               17.495       
       765.16165             44.9069               17.44        
       768.98746             44.9657               17.385       
        772.8324             45.0239               17.329       
       776.69656             45.0817               17.274       
       780.58004             45.1389               17.219       
       784.48294             45.1956               17.163       
       788.40536             45.2517               17.107       
       792.34738             45.3072               17.051       
       796.30912             45.3622               16.995       
       800.29067             45.4165               16.938       
       804.29212             45.4703               16.882       
       808.31358             45.5234               16.825       
       812.35515              45.576               16.769       
       816.41693              45.628               16.712       
       820.49901             45.6794               16.656       
        824.6015             45.7303               16.599       
       828.72451             45.7806               16.542       
       832.86813             45.8303               16.485       
       837.03248             45.8794               16.428       
       841.21764              45.928               16.371       
       845.42373              45.976               16.314       
       849.65084             46.0234               16.257       
        853.8991             46.0702                16.2        
       858.16859             46.1166               16.143       
       862.45944             46.1623               16.086       
       866.77173             46.2075               16.029       
       871.10559             46.2522               15.971       
       875.46112             46.2963               15.914       
       879.83843             46.3398               15.857       
       884.23762             46.3829               15.799       
       888.65881             46.4254               15.742       
        893.1021             46.4674               15.685       
       897.56761             46.5089               15.627       
       902.05545             46.5499               15.57        
       906.56573             46.5903               15.513       
       911.09856             46.6304               15.455       
       915.65405             46.6699               15.398       
       920.23232              46.709               15.341       
       924.83348             46.7477               15.283       
       929.45765             46.7859               15.226       
       934.10494             46.8237               15.169       
       938.77546             46.8612               15.111       
       943.46934             46.8983               15.054       
       948.18668              46.935               14.996       
       952.92762             46.9715               14.939       
       957.69226             47.0078               14.882       
       962.48072             47.0438               14.824       
       967.29312             47.0796               14.767       
       972.12959             47.1154               14.709       
       976.99023             47.1512               14.652       
       981.87519             47.1871               14.595       
       986.78456             47.2233               14.538       
       991.71848             47.2599               14.481       
       996.67708             47.2974               14.424       
       1001.6605             47.3377               14.355       
       1006.6688             47.3679               14.26        
       1011.7021             47.3922               14.166       
       1016.7606             47.4135               14.073       
       1021.8444             47.4322               13.98        
       1026.9536             47.4487               13.888       
       1032.0884             47.4631               13.798       
       1037.2489             47.4754               13.707       
       1042.4351             47.4857               13.618       
       1047.6473              47.494               13.53        
       1052.8855             47.5005               13.442       
       1058.1499             47.5051               13.355       
       1063.4407             47.5079               13.268       
       1068.7579             47.5088               13.183       
       1074.1017              47.508               13.098       
       1079.4722             47.5055               13.014       
       1084.8695             47.5012               12.93        
       1090.2939             47.4952               12.848       
       1095.7454             47.4875               12.766       
       1101.2241             47.4781               12.685       
       1106.7302              47.467               12.604       
       1112.2639             47.4543               12.524       
       1117.8252              47.44                12.445       
       1123.4143             47.4239               12.366       
       1129.0314             47.4063               12.288       
       1134.6765              47.387               12.211       
       1140.3499              47.366               12.134       
       1146.0517             47.3434               12.058       
       1151.7819             47.3191               11.983       
       1157.5408             47.2932               11.908       
       1163.3285             47.2657               11.834       
       1169.1452             47.2364               11.761       
       1174.9909             47.2055               11.688       
       1180.8659             47.1729               11.616       
       1186.7702             47.1386               11.544       
        1192.704             47.1026               11.473       
       1198.6676             47.0648               11.402       
       1204.6609             47.0253               11.332       
       1210.6842              46.984               11.263       
       1216.7376             46.9387               11.194       
       1222.8213             46.8938               11.126       
       1228.9354             46.8471               11.058       
       1235.0801             46.7984               10.991       
       1241.2555             46.7478               10.925       
       1247.4618             46.6953               10.859       
       1253.6991             46.6408               10.793       
       1259.9676             46.5842               10.728       
       1266.2674             46.5256               10.664       
       1272.5988             46.4648                10.6        
       1278.9618             46.4019               10.536       
       1285.3566             46.3368               10.473       
       1291.7833             46.2693               10.411       
       1298.2423             46.1996               10.349       
       1304.7335             46.1274               10.288       
       1311.2571             46.0527               10.227       
       1317.8134             45.9756               10.166       
       1324.4025             45.8958               10.106       
       1331.0245             45.8132               10.047       
       1337.6796              45.728               9.988        
        1344.368             45.6398               9.9294       
       1351.0899             45.5486               9.8713       
       1357.8453             45.4544               9.8137       
       1364.6345             45.3569               9.7565       
       1371.4577             45.2561               9.6997       
        1378.315             45.1519               9.6434       
       1385.2066             45.0441               9.5875       
       1392.1326             44.9325               9.5321       
       1399.0933             44.8183               9.4771       
       1406.0887             44.6988               9.4226       
       1413.1192             44.5751               9.3684       
       1420.1848             44.4469               9.3147       
       1427.2857             44.3141               9.2614       
       1434.4221             44.1763               9.2086       
       1441.5942             44.0335               9.1561       
       1448.8022             43.8852               9.104        
       1456.0462             43.7312               9.0524       
       1463.3265             43.5713               9.0011       
       1470.6431             43.4049               8.9502       
       1477.9963             43.2318               8.8998       
       1485.3863             43.0516               8.8497       
       1492.8132             42.8638                8.8         
       1500.2773             42.6679               8.7507       
       1507.7787             42.4634               8.7017       
       1515.3176             42.2496               8.6532       
       1522.8942             42.0259               8.605        
       1530.5086             41.7915               8.5571       
       1538.1612             41.5455               8.5097       
        1545.852             41.2872               8.4626       
       1553.5812             41.0153               8.4158       
       1561.3491             40.7286               8.3694       
       1569.1559             40.4259               8.3234       
       1577.0017             40.1054               8.2777       
       1584.8867             39.7655               8.2324       
       1592.8111             39.4038               8.1874       
       1600.7752              39.018               8.1427       
        1608.779             38.6051               8.0984       
       1616.8229             38.1615               8.0544       
        1624.907             37.6829               8.0094       
       1633.0316             37.1639               7.9646       
       1641.1967             36.5981               7.9201       
       1649.4027              35.977               7.876        
       1657.6497             35.2899               7.8322       
        1665.938             34.5223               7.7887       
       1674.2677             33.6544               7.7455       
        1682.639             32.6576               7.7027       
       1691.0522             31.4889               7.6602       
       1699.5075             30.0801               7.618        
        1708.005             28.2994               7.5761       
        1716.545             25.8762               7.5346       
       1725.1278             22.0117               7.4933       
       1733.7534             10.0711               7.4524       
       1734.7877             1.51614               7.4475       
       1735.4123             1.19537               25.774       
       1742.4222              19.342               25.625       
       1751.1343             23.4233               25.441       
       1759.8899             25.2767               25.259       
       1768.6894             26.0669               25.078       
       1777.5328             25.9037               24.899       
       1786.4205             23.9938               24.721       
       1792.6172             15.3905               24.598       
       1793.7828             15.3399               36.635       
       1795.3526             20.5553               36.588       
       1804.3294              27.87                36.322       
        1813.351             31.0235               36.057       
       1822.4178             33.2274               35.794       
       1831.5299             34.9701               35.534       
       1840.6875             36.4297               35.275       
       1849.8909             37.6932               35.019       
       1859.1404             38.8107               34.764       
       1868.4361             39.8139               34.51        
       1877.7783             40.7245               34.259       
       1887.1672              41.558               34.009       
        1896.603              42.326               33.761       
        1906.086             43.0373               33.515       
       1915.6165              43.699               33.271       
       1925.1945             44.3166               33.029       
       1934.8205             44.8947               32.788       
       1944.4946             45.4369               32.55        
       1954.2171             45.9464               32.313       
       1963.9882             46.4258               32.078       
       1973.8081             46.8771               31.845       
       1983.6772             47.3022               31.614       
       1993.5955             47.7026               31.384       
       2003.5635             48.0794               31.157       
       2013.5813             48.4337               30.931       
       2023.6492             48.7662               30.706       
       2033.7675             49.0774               30.484       
       2043.9363             49.3674               30.263       
        2054.156             49.6364               30.043       
       2064.4268              49.884               29.826       
       2074.7489             50.1095               29.61        
       2085.1227             50.3117               29.396       
       2095.5483             50.4889               29.183       
        2106.026             50.6384               28.972       
       2116.5562             50.7562               28.763       
       2127.1389             50.8362               28.555       
       2137.7746             50.8686               28.349       
       2148.4635             50.8373               28.144       
       2159.2058             50.7121               27.941       
       2170.0018             50.4274               27.74        
       2180.8519             49.7924               27.54        
       2191.7561             47.3967               27.341       
       2196.3695             47.5241               32.008       
       2202.7149             49.6584               31.866       
       2213.7285             51.1518               31.621       
       2224.7971              52.064               31.377       
       2235.9211             52.7545               31.136       
       2247.1007             53.3238               30.897       
       2258.3362             53.8141               30.658       
       2269.6279             54.2458               30.416       
        2280.976              54.631               30.176       
       2292.3809             54.9771               29.937       
       2303.8428             55.2874               29.704       
        2315.362             55.5725               29.489       
       2326.9388             55.8396               29.278       
       2338.5735             56.0885               29.066       
       2350.2664             56.3185               28.856       
       2362.0177              56.53                28.648       
       2373.8278             56.7226               28.442       
        2385.697             56.8952               28.239       
       2397.6254             57.0457               28.038       
       2409.6136             57.1701               27.84        
       2421.6616             57.2608               27.643       
       2433.7699              57.303               27.449       
       2445.9388             57.2607               27.256       
       2458.1685             57.0077               27.066       
       2465.7375             56.3718               26.949       
       2470.4593             56.1112               28.778       
       2471.6624             56.4484               28.758       
       2482.8116             57.5794               28.566       
       2495.2257              58.152               28.356       
       2507.7018             58.5644               28.148       
       2520.2403             58.9024               27.942       
       2532.8415             59.1946               27.738       
       2545.5057             59.4544               27.536       
       2558.2333             59.6887               27.335       
       2571.0244             59.9011               27.137       
       2583.8796             60.0933               26.94        
        2596.799             60.2657               26.752       
       2609.7829             60.4255               26.572       
       2622.8319             60.5724               26.395       
        2635.946             60.7044               26.22        
       2649.1257             60.8183               26.047       
       2662.3714             60.9079               25.876       
       2675.6832             60.9602               25.707       
       2689.0617             60.9393               25.54        
        2702.507             60.6585               25.375       
       2702.7735             60.6437               25.372       
       2713.2264             60.7657               26.39        
       2716.0195             60.9564               26.356       
       2729.5996             61.4815               26.19        
       2743.2476             61.8198               26.026       
       2756.9638             62.0959               25.863       
       2770.7486             62.3394               25.701       
       2784.6024             62.5624               25.541       
       2798.5254             62.7708               25.382       
        2812.518             62.9684               25.224       
       2826.5806             63.1572               25.067       
       2840.7135             63.3389               24.911       
       2854.9171             63.5148               24.757       
       2869.1917             63.6858               24.602       
       2883.5376             63.8525               24.448       
       2897.9553             64.0155               24.295       
       2912.4451             64.1756               24.144       
       2927.0073             64.3333               23.993       
       2941.6424             64.4893               23.843       
       2956.3506             64.6444               23.695       
       2971.1323             64.7995               23.547       
        2985.988             64.9561                23.4        
       3000.9179             65.1254               23.253       
       3015.9225             65.2708               23.086       
       3031.0021             65.4014               22.921       
       3046.1571             65.5258               22.756       
       3061.3879             65.6455               22.593       
       3076.6949             65.7613               22.43        
       3092.0783             65.8737               22.269       
       3107.5387             65.9828               22.109       
       3123.0764             66.0889               21.95        
       3138.6918             66.1921               21.793       
       3154.3853             66.2928               21.636       
       3170.1572             66.3909               21.481       
        3186.008             66.4866               21.326       
        3201.938             66.5802               21.173       
       3217.9477             66.6716               21.02        
       3234.0374             66.7605               20.868       
       3250.2076             66.8471               20.717       
       3266.4587             66.9315               20.567       
        3282.791             67.0138               20.418       
       3299.2049             67.0941               20.271       
       3315.7009             67.1725               20.124       
       3332.2794             67.2491               19.979       
       3348.9408              67.324               19.835       
       3365.6856             67.3972               19.692       
        3382.514             67.4688               19.55        
       3399.4265             67.5389               19.409       
       3416.4237             67.6075               19.27        
       3433.5058             67.6748               19.131       
       3450.6733             67.7408               18.994       
       3467.9267             67.8056               18.858       
       3485.2663             68.0766               18.716       
       3502.6927             68.1386               18.574       
       3520.2061             68.1987               18.434       
       3537.8072             68.2569               18.294       
       3555.4962             68.3133               18.156       
       3573.2737             68.3681               18.018       
        3591.14              68.5614               17.881       
       3609.0957             68.6131               17.741       
       3627.1412             68.6628               17.603       
       3645.2769             68.7107               17.466       
       3663.5033             68.7567               17.33        
       3681.8208             68.8009               17.195       
       3700.2299             68.8436               17.061       
       3718.7311             68.8847               16.929       
       3737.3247             68.9244               16.798       
       3756.0114             68.9626               16.668       
       3774.7914             68.9994               16.54        
       3793.6654              69.035               16.412       
       3812.6337             69.0693               16.286       
       3831.6969             69.1024               16.161       
       3850.8554             69.1343               16.037       
       3870.1096             69.1651               15.914       
       3889.4602             69.1948               15.792       
       3908.9075             69.2235               15.672       
        3928.452             69.2511               15.552       
       3948.0943             69.2778               15.434       
       3967.8347             69.3036               15.317       
       3987.6739             69.3284                15.2        
        4055.024             69.7903               14.818       
        4334.821             69.9592               13.402       
        4633.924             70.1464               12.084       
        4953.664             70.1733                10.9        
        5295.467             70.0792               9.8206       
        5660.855             69.9372               8.855        
        6051.453             69.7167               7.9928       
        6469.004             69.4432               7.2248       
        6915.365              69.114                6.54        
        7392.525             68.7163               5.9283       
        7902.609             68.2155               5.3635       
        8447.89              67.5254               4.8481       
        9030.794             66.4617               4.3729       
        9653.919              63.714               3.8954       
        9683.478             63.4252               3.8744       
        9831.694             60.5401               3.7718       
        9871.219             57.1434               3.7453       
        9930.505             60.5654               10.348       
        10078.72             63.5612               10.006       
        10320.04             65.0977               9.4836       
        10913.38             65.4822               8.5087       
        11032.12             64.8825               8.3416       
        11080.42              64.305               8.2758       
        11124.96             62.7014               8.216        
        11191.78             64.4029               11.357       
        11358.82              65.931               11.07        
        11447.87             66.2523               10.923       
        11623.09             66.2303               10.644       
        11669.82             65.5306               10.572       
        11739.91             66.5825               12.137       
        11793.34             67.0814               12.053       
        11915.13             67.7871               11.867       
        12607.08             69.7701               10.898       
        13476.97             71.0512               9.8172       
        14406.88             71.8606               8.8261       
        15400.95             72.4049               7.9175       
        16463.62             72.7659               7.0951       
        17599.61             73.0023               6.3589       
        18813.98             73.1523               5.7019       
        20112.15             73.3039               5.1142       
        21499.88             73.3452               4.584        
        22983.38             73.3888               4.1096       
        24569.23             73.4025               3.6801       
        26264.5              73.3713               3.2969       
        28076.76             73.3311               2.932        
        30014.05             73.2561               2.6027       
        32085.02             73.1674               2.3123       
        34298.89             73.0703               2.0559       
        36665.51             72.9671               1.8295       
        39195.43             72.8589               1.6292       
        41899.92             72.7455               1.452        
        44791.01             72.6247               1.2929       
        47881.59             72.4914               1.1512       
        51185.42             72.3388               1.0236       
        54717.21             72.1497              0.90721       
        58492.7              71.8904              0.80445       
        62528.7              71.4546              0.71341       
        66068.07             70.4835              0.64647       
        66843.18             69.8055              0.63316       
        67079.32             69.3757              0.62919       
        67348.98             68.0495               0.6247       
        67753.48             69.3893               3.2286       
        68764.73             70.5993               3.1573       
        71455.36             71.5926               2.9775       
        76385.78             72.3062               2.6741       
        81656.4              72.6821               2.3979       
        87290.69             72.9153               2.1482       
        93313.74             73.0695               1.9189       
        99752.39             73.1707               1.714        
        106635.3             73.2373               1.5312       
        113993.1             73.2801               1.368        
        121858.7              73.306               1.2224       
        130266.9              73.32                1.0924       
        139255.3             73.3528              0.97465       
        148864.0             73.3493              0.86801       
        159135.6             73.3401              0.77311       
        170115.9             73.3273              0.68866       
        181853.9             73.3121              0.61349       
        194401.8             73.2954              0.54657       
        207815.6             73.2778              0.48699       
        222154.8             73.2599              0.43395       
        237483.5              73.242              0.38672       
        253869.9             73.2244              0.34465       
        271386.9             73.2072              0.30719       
        290112.6             73.1903              0.27382       
        310130.4             73.1743               0.2457       
        331529.4             73.1599              0.22066       
        354404.9             73.1467              0.19819       
        378858.8             73.1345              0.17802       
        405000.1             73.1233              0.15992       
        432945.1              73.113              0.14366       
