# Tb
# Form Factors from Chantler Tables
# DOI: https://dx.doi.org/10.18434/T4HS32
# automatically retrived 2019-02-28 using URL https://physics.nist.gov/cgi-bin/ffast/ffast.pl

# For f_rel the second term, which is 3/5th of the Cromer-Liberman value, is used as suggested by Chantler.
# Real and imaginary part of the formfactors are: f'(E)=f1(E)+f_rel+f_NT and f''(E)=f2(E)
# see also original publication:  https://doi.org/10.1063/1.555974

# Z = 65
# f_rel = -0.6234 e/atom  (Relativistic correction estimate)
# f_NT = -0.014584 e/atom (Nuclear Thomson correction)


#        E (eV)            f1 (e/atom)          f2 (e/atom)     
         8.428                12.981                0.0         
         8.557               12.9472                0.0         
         8.5914              12.9206                0.0         
         8.643               12.9376              0.044183      
         8.772               12.9409              0.043243      
         9.212               12.8773              0.040279      
         9.353               12.8122              0.039401      
         9.3906              12.7429              0.039172      
         9.447               12.8081              0.16984       
         9.588               12.8578              0.16622       
         10.69                12.837              0.14498       
        11.42761             12.7683              0.14004       
        12.21612              12.678              0.14113       
        13.05903             12.5663              0.14746       
        13.9601              12.4303              0.15886       
        14.92335              12.265              0.17558       
        15.95306             12.0622              0.19819       
        17.05382             11.8097              0.22759       
        18.23053             11.4875              0.26496       
        19.48844              11.061              0.31175       
        20.83314              10.462              0.36973       
        22.27063             9.52814              0.44091       
        23.8073              7.69941              0.52762       
         24.892               4.2122               0.5954       
         25.273             -0.441891              0.6205       
        25.3746               -6.107               0.6273       
        25.45001             -3.53795              11.903       
         25.527             -0.0875725             11.837       
         25.908              5.18255               11.522       
        27.20606             10.2633               10.564       
        29.08327              13.005               9.3993       
        31.09002             14.5382               8.2623       
        33.23523             15.3677               7.2428       
        35.52846             15.7615               6.4036       
        37.97993             15.8784               5.7661       
         38.22               15.8782               5.7162       
         38.805              15.8646               5.6032       
         38.961              15.8469               5.5751       
         39.195               15.861               5.5671       
         39.78               15.8659               5.4739       
        40.60054             15.8529               5.3603       
        43.40198             15.7544               5.1021       
        46.39671             15.6225               4.9983       
        49.59809             15.5046               5.018        
        53.02035              15.409               5.1339       
        56.67876             15.3482               5.3289       
        60.58959             15.3299               5.585        
        64.77028             15.3572               5.8872       
        69.23942             15.4298               6.2227       
        74.01695             15.5456               6.5815       
        79.12411             15.7156               6.9551       
        84.58368             15.9045               7.3372       
        90.41995              16.12                7.7227       
        96.65893             16.3527               8.1079       
         100.0               19.0901               8.3031       
         100.5               19.1079               8.3317       
        101.0025             19.1257               8.3603       
       101.50751             19.1434               8.3888       
       102.01505             19.1611               8.4173       
       102.52513             19.1787               8.4458       
       103.03775             19.1962               8.4743       
       103.55294             19.2136               8.5028       
        104.0707             19.2309               8.5312       
       104.59106             19.2481               8.5596       
       105.11401             19.2651               8.588        
       105.63958             19.2821               8.6164       
       106.16778             19.2988               8.6447       
       106.69862             19.3154               8.6731       
       107.23211             19.3318               8.7014       
       107.76827              19.348               8.7296       
       108.30712             19.3639               8.7579       
       108.84865             19.3797               8.7861       
       109.39289             19.3951               8.8143       
       109.93986             19.4103               8.8425       
       110.48956             19.4252               8.8707       
       111.04201             19.4397               8.8988       
       111.59722             19.4539               8.9269       
        112.1552             19.4677               8.955        
       112.71598             19.4811               8.983        
       113.27956              19.494               9.011        
       113.84596             19.5065               9.039        
       114.41519             19.5185               9.067        
       114.98726             19.5299               9.095        
        115.5622             19.5408               9.1229       
       116.14001              19.551               9.1508       
       116.72071             19.5605               9.1787       
       117.30431             19.5699               9.2065       
       117.89083              19.578               9.2343       
       118.48029             19.5852               9.2621       
       119.07269             19.5916               9.2899       
       119.66805              19.597               9.3177       
       120.26639             19.6013               9.3454       
       120.86772             19.6046               9.3731       
       121.47206             19.6066               9.4008       
       122.07942             19.6074               9.4284       
       122.68982             19.6068               9.456        
       123.30327             19.6047               9.4836       
       123.91979              19.601               9.5112       
       124.53939             19.5955               9.5388       
       125.16208             19.5881               9.5663       
       125.78789             19.5786               9.5939       
       126.41683             19.5668               9.6214       
       127.04892             19.5526               9.6488       
       127.68416             19.5357               9.6763       
       128.32258             19.5159               9.7037       
       128.96419             19.4927               9.7312       
       129.60902              19.466               9.7586       
       130.25706             19.4354               9.7859       
       130.90835             19.4003               9.8133       
       131.56289             19.3604               9.8407       
        132.2207              19.315               9.868        
       132.88181             19.2636               9.8953       
       133.54621             19.2052               9.9226       
       134.21395              19.139               9.9499       
       134.88502              19.064               9.9772       
       135.55944             18.9787               10.004       
       136.23724             18.8818               10.032       
       136.91842             18.7711               10.059       
       137.60302             18.6444               10.086       
       138.29103             18.4986               10.113       
       138.98249              18.33                10.141       
        139.6774             18.1334               10.168       
       140.37579             17.9023               10.195       
       141.07766             17.6275               10.222       
       141.78305             17.2961               10.249       
       142.49197             16.8889               10.277       
       143.20443             16.3762               10.304       
       143.92045              15.708               10.331       
       144.64005             14.7917               10.358       
       145.36325             13.4255               10.385       
       146.09007             11.0209               10.412       
       146.82052             3.47099               10.44        
       146.95355             -3.34446              10.444       
       147.04645             -3.13135              26.773       
       147.55462             10.5112               26.136       
       148.29239             15.5232               25.261       
       149.03386             18.2741               24.438       
       149.77903             20.1565               23.664       
       150.52792             21.5618               22.936       
       151.28056             22.6604               22.252       
       152.03696             23.5434               21.608       
       152.79715             24.2662               21.004       
       153.56113             24.8653               20.435       
       154.32894             25.3661               19.901       
       155.10058             25.7872               19.399       
       155.87609             26.1426               18.928       
       156.65547             26.4432               18.485       
       157.43875             26.6977               18.07        
       158.22594             26.9127               17.68        
       159.01707              27.094               17.314       
       159.81215              27.246               16.97        
       160.61121             27.3723               16.648       
       161.41427             27.4756               16.347       
       162.22134             27.5581               16.054       
       163.03245             27.6224               15.784       
       163.84761              27.673               15.536       
       164.66685             27.7135               15.31        
       165.49018             27.7462               15.103       
       166.31763             27.7731               14.913       
       167.14922             27.7956               14.738       
       167.98497              27.815               14.578       
       168.82489             27.8322               14.43        
       169.66902              27.848               14.295       
       170.51736             27.8629               14.17        
       171.36995             27.8775               14.055       
        172.2268             27.8921               13.95        
       173.08793             27.9072               13.852       
       173.95337             27.9231               13.763       
       174.82314             27.9398               13.68        
       175.69726             27.9578               13.604       
       176.57574             27.9771               13.531       
       177.45862             27.9983               13.428       
       178.34591             28.0193               13.33        
       179.23764             28.0402               13.237       
       180.13383             28.0611               13.148       
        181.0345             28.0821               13.062       
       181.93967             28.1031               12.981       
       182.84937             28.1242               12.902       
       183.76362             28.1455               12.826       
       184.68244             28.1669               12.754       
       185.60585             28.1885               12.684       
       186.53388             28.2102               12.616       
       187.46655             28.2321               12.551       
       188.40388             28.2542               12.487       
        189.3459             28.2763               12.426       
       190.29263             28.2986               12.367       
       191.24409              28.321               12.309       
       192.20031             28.3435               12.253       
       193.16131             28.3661               12.198       
       194.12712             28.3888               12.145       
       195.09776             28.4115               12.093       
       196.07325             28.4343               12.043       
       197.05361             28.4571               11.993       
       198.03888             28.4799               11.945       
       199.02907             28.5027               11.898       
       200.02422             28.5254               11.851       
       201.02434             28.5481               11.806       
       202.02946             28.5708               11.761       
       203.03961             28.5934               11.718       
       204.05481             28.6158               11.675       
       205.07508             28.6382               11.632       
       206.10046             28.6604               11.591       
       207.13096             28.6825               11.55        
       208.16661             28.7045               11.51        
       209.20745             28.7262               11.47        
       210.25348             28.7478               11.431       
       211.30475             28.7691               11.393       
       212.36128             28.7903               11.355       
       213.42308             28.8112               11.317       
        214.4902             28.8318               11.28        
       215.56265             28.8522               11.244       
       216.64046             28.8723               11.208       
       217.72366             28.8921               11.172       
       218.81228             28.9116               11.137       
       219.90634             28.9308               11.102       
       221.00588             28.9497               11.068       
        222.1109             28.9682               11.034       
       223.22146             28.9864                11.0        
       224.33757             29.0041               10.967       
       225.45925             29.0215               10.934       
       226.58655             29.0385               10.902       
       227.71948             29.0551               10.87        
       228.85808             29.0713               10.838       
       230.00237              29.087               10.807       
       231.15238             29.1023               10.776       
       232.30814             29.1171               10.745       
       233.46969             29.1314               10.714       
       234.63703             29.1452               10.684       
       235.81022             29.1585               10.654       
       236.98927             29.1712               10.625       
       238.17422             29.1834               10.596       
       239.36509             29.1951               10.567       
       240.56191             29.2061               10.538       
       241.76472             29.2165               10.51        
       242.97355             29.2263               10.482       
       244.18841             29.2354               10.455       
       245.40936             29.2439               10.427       
        246.6364             29.2516                10.4        
       247.86959             29.2585               10.374       
       249.10893             29.2647               10.347       
       250.35448             29.2701               10.321       
       251.60625             29.2746               10.296       
       252.86428             29.2781               10.27        
        254.1286             29.2807               10.245       
       255.39925             29.2823               10.22        
       256.67624             29.2828               10.196       
       257.95962             29.2821               10.172       
       259.24942             29.2802               10.148       
       260.54567             29.2768               10.124       
        261.8484              29.272               10.101       
       263.15764             29.2656               10.078       
       264.47343             29.2574               10.056       
       265.79579             29.2471               10.033       
       267.12477             29.2346               10.011       
        268.4604             29.2196               9.9898       
        269.8027             29.2016               9.9686       
       271.15171             29.1802               9.9476       
       272.50747             29.1547               9.927        
       273.87001             29.1243               9.9068       
       275.23936             29.0876               9.8868       
       276.61556              29.043               9.8672       
       277.99863             28.9877               9.848        
       279.38863              28.917               9.829        
       280.78557             28.8223               9.8104       
        282.1895             28.6841               9.7922       
       283.60044             28.4403               9.7743       
        284.7492             27.8284                9.76        
       285.01845             26.8959               10.88        
        285.2508              27.829               10.878       
       286.44354             28.4574               10.867       
       287.87576             28.7078               10.854       
       289.31514             28.8569               10.842       
       290.76171              28.964               10.83        
       292.21552             29.0477               10.819       
        293.6766             29.1163               10.807       
       295.14498              29.174               10.797       
       296.62071             29.2234               10.786       
       298.10381             29.2659               10.776       
       299.59433             29.3022               10.766       
        301.0923             29.3327               10.757       
       302.59776             29.3572               10.748       
       304.11075             29.3748               10.739       
        305.6313             29.3832               10.731       
       307.15946              29.377               10.723       
       308.69526             29.3374               10.715       
        309.8867             29.1967               10.71        
       310.23873             28.9823               11.041       
       310.51331             29.2097               11.04        
       311.78993             29.4082               11.036       
       313.34888             29.5122               11.031       
       314.91562             29.5859               11.027       
        316.4902             29.6467               11.022       
       318.07265             29.7001               11.018       
       319.66301             29.7486               11.015       
       321.26133             29.7936               11.011       
       322.86764             29.8359               11.008       
       324.48197             29.8761               11.006       
       326.10438             29.9146               11.003       
       327.73491             29.9516               11.001       
       329.37358             29.9874               10.999       
       331.02045             30.0221               10.998       
       332.67555             30.0558               10.997       
       334.33893             30.0887               10.996       
       336.01062             30.1208               10.995       
       337.69068             30.1523               10.995       
       339.37913             30.1831               10.994       
       341.07602             30.2133               10.995       
        342.7814             30.2431               10.995       
       344.49531             30.2723               10.996       
       346.21779              30.301               10.996       
       347.94888             30.3293               10.998       
       349.68862             30.3572               10.999       
       351.43706             30.3846                11.0        
       353.19425             30.4117               11.002       
       354.96022             30.4383               11.004       
       356.73502             30.4645               11.006       
        358.5187             30.4903               11.009       
       360.31129             30.5156               11.011       
       362.11285             30.5405               11.014       
       363.92341             30.5649               11.017       
       365.74303             30.5887               11.02        
       367.57174              30.612               11.023       
        369.4096             30.6346               11.026       
       371.25665             30.6565               11.03        
       373.11293             30.6775               11.034       
        374.9785             30.6976               11.037       
       376.85339             30.7166               11.041       
       378.73766             30.7342               11.045       
       380.63135             30.7502               11.049       
        382.5345             30.7641               11.054       
       384.44718             30.7754               11.058       
       386.36941             30.7832               11.062       
       388.30126             30.7863               11.067       
       390.24276             30.7822               11.071       
       392.19398             30.7669               11.076       
       394.15495             30.7304               11.08        
       396.12572             30.6395               11.085       
       397.39863             30.4502               11.088       
       398.10635             30.3141               11.614       
       398.40134              30.467               11.614       
       400.09688             30.7421               11.619       
       402.09737             30.8843               11.625       
       404.10785             30.9841               11.631       
       406.12839             31.0659               11.637       
       408.15904             31.1378               11.643       
       410.19983             31.2034               11.649       
       412.25083             31.2647               11.654       
       414.31208             31.3229               11.66        
       416.38364             31.3788               11.666       
       418.46556             31.4328               11.671       
       420.55789             31.4855               11.677       
       422.66068              31.537               11.682       
       424.77398             31.5875               11.688       
       426.89785             31.6373               11.693       
       429.03234             31.6865               11.698       
        431.1775             31.7351               11.703       
       433.33339             31.7833               11.708       
       435.50006             31.8312               11.713       
       437.67756             31.8787               11.718       
       439.86595              31.926               11.723       
       442.06528              31.97                11.727       
        444.2756             32.0169               11.731       
       446.49698             32.0636               11.735       
       448.72947             32.1102               11.739       
       450.97311             32.1567               11.743       
       453.22798             32.2031               11.746       
       455.49412             32.2494               11.75        
       457.77159             32.2956               11.753       
       460.06045             32.3417               11.756       
       462.36075             32.3878               11.758       
       464.67255             32.4338               11.761       
       466.99592             32.4798               11.763       
        469.3309             32.5257               11.764       
       471.67755             32.5716               11.766       
       474.03594             32.6175               11.767       
       476.40612             32.6633               11.768       
       478.78815             32.7091               11.769       
       481.18209             32.7549               11.769       
        483.588              32.8006               11.77        
       486.00594             32.8462               11.769       
       488.43597             32.8918               11.769       
       490.87815             32.9374               11.768       
       493.33254             32.9829               11.767       
        495.7992             33.0283               11.765       
        498.2782             33.0737               11.764       
       500.76959              33.119               11.762       
       503.27344             33.1642               11.759       
        505.7898             33.2094               11.756       
       508.31875             33.2545               11.753       
       510.86035             33.2995               11.75        
       513.41465             33.3444               11.746       
       515.98172             33.3892               11.742       
       518.56163             33.4339               11.738       
       521.15444             33.4784               11.733       
       523.76021             33.5229               11.728       
       526.37901             33.5672               11.722       
       529.01091             33.6114               11.717       
       531.65596             33.6555               11.71        
       534.31424             33.6994               11.704       
       536.98581             33.7431               11.697       
       539.67074             33.7867               11.69        
        542.3691             33.8302               11.682       
       545.08094             33.8734               11.674       
       547.80635             33.9164               11.665       
       550.54538             33.9593               11.657       
        553.2981             34.0019               11.648       
        556.0646             34.0444               11.638       
       558.84492             34.0866               11.628       
       561.63914             34.1286               11.618       
       564.44734             34.1703               11.607       
       567.26958             34.2119               11.596       
       570.10592             34.2531               11.585       
       572.95645             34.2941               11.573       
       575.82123             34.3349               11.561       
       578.70034             34.3753               11.549       
       581.59384             34.4155               11.536       
       584.50181             34.4554               11.523       
       587.42432              34.495               11.509       
       590.36144             34.5343               11.495       
       593.31325             34.5732               11.481       
       596.27982             34.6119               11.466       
       599.26122             34.6501               11.451       
       602.25752              34.688               11.435       
       605.26881             34.7255               11.419       
       608.29515             34.7626               11.402       
       611.33663             34.7993               11.385       
       614.39331             34.8356               11.368       
       617.46528             34.8713               11.35        
        620.5526             34.9067               11.332       
       623.65537             34.9415               11.313       
       626.77364             34.9759               11.294       
       629.90751             35.0097               11.274       
       633.05705              35.043               11.254       
       636.22234             35.0758               11.234       
       639.40345             35.1081               11.214       
       642.60046             35.1398               11.193       
       645.81347             35.1709               11.171       
       649.04253             35.2014               11.15        
       652.28775             35.2313               11.127       
       655.54919             35.2607               11.105       
       658.82693             35.2894               11.082       
       662.12107             35.3175               11.059       
       665.43167             35.3449               11.036       
       668.75883             35.3717               11.012       
       672.10262             35.3978               10.988       
       675.46314             35.4232               10.964       
       678.84045              35.448               10.939       
       682.23466              35.472               10.915       
       685.64583             35.4953               10.889       
       689.07406              35.518               10.864       
       692.51943             35.5398               10.838       
       695.98202              35.561               10.812       
       699.46194             35.5813               10.786       
       702.95924             35.6009               10.76        
       706.47404             35.6197               10.733       
       710.00641             35.6378               10.706       
       713.55644              35.655               10.679       
       717.12423             35.6714               10.652       
       720.70985              35.687               10.624       
        724.3134             35.7017               10.596       
       727.93496             35.7156               10.568       
       731.57464             35.7286               10.54        
       735.23251             35.7408               10.512       
       738.90867              35.752               10.483       
       742.60322             35.7624               10.454       
       746.31623             35.7718               10.426       
       750.04781             35.7803               10.396       
       753.79805             35.7879               10.367       
       757.56704             35.7945               10.338       
       761.35488             35.8001               10.308       
       765.16165             35.8048               10.279       
       768.98746             35.8084               10.249       
        772.8324              35.811               10.219       
       776.69656             35.8126               10.189       
       780.58004             35.8132               10.159       
       784.48294             35.8126               10.128       
       788.40536              35.811               10.098       
       792.34738             35.8083               10.067       
       796.30912             35.8045               10.037       
       800.29067             35.7996               10.006       
       804.29212             35.7935               9.9755       
       808.31358             35.7862               9.9447       
       812.35515             35.7777               9.9138       
       816.41693              35.768               9.8828       
       820.49901             35.7571               9.8518       
        824.6015             35.7449               9.8207       
       828.72451             35.7315               9.7895       
       832.86813             35.7167               9.7583       
       837.03248             35.7007               9.7271       
       841.21764             35.6832               9.6958       
       845.42373             35.6644               9.6645       
       849.65084             35.6442               9.6332       
        853.8991             35.6226               9.6018       
       858.16859             35.6013               9.5704       
       862.45944             35.5767               9.539        
       866.77173             35.5506               9.5075       
       871.10559              35.523               9.4761       
       875.46112             35.4938               9.4446       
       879.83843             35.4629               9.4132       
       884.23762             35.4304               9.3817       
       888.65881             35.3962               9.3502       
        893.1021             35.3602               9.3188       
       897.56761             35.3225               9.2874       
       902.05545             35.2829               9.2559       
       906.56573             35.2415               9.2245       
       911.09856             35.1981               9.1931       
       915.65405             35.1528               9.1617       
       920.23232             35.1055               9.1304       
       924.83348             35.0561               9.0991       
       929.45765             35.0046               9.0678       
       934.10494             34.9509               9.0365       
       938.77546              34.895               9.0053       
       943.46934             34.8368               8.9741       
       948.18668             34.7763               8.943        
       952.92762             34.7133               8.9119       
       957.69226             34.6478               8.8809       
       962.48072             34.5798               8.8499       
       967.29312             34.5092               8.819        
       972.12959             34.4358               8.7881       
       976.99023             34.3597               8.7572       
       981.87519             34.2807               8.7265       
       986.78456             34.1987               8.6958       
       991.71848             34.1138               8.6651       
       996.67708             34.0258               8.6345       
       1001.6605             33.9309               8.5979       
       1006.6688             33.8244               8.5491       
       1011.7021             33.7127               8.5006       
       1016.7606             33.5959               8.4525       
       1021.8444             33.4736               8.4047       
       1026.9536             33.3455               8.3572       
       1032.0884             33.2115                8.31        
       1037.2489             33.0713               8.2632       
       1042.4351             32.9245               8.2166       
       1047.6473             32.7707               8.1704       
       1052.8855             32.6097               8.1245       
       1058.1499              32.441               8.0789       
       1063.4407             32.2642               8.0337       
       1068.7579             32.0788               7.9887       
       1074.1017             31.8842               7.944        
       1079.4722             31.6798               7.8997       
       1084.8695              31.465               7.8556       
       1090.2939              31.239               7.8119       
       1095.7454              31.001               7.7684       
       1101.2241             30.7501               7.7253       
       1106.7302             30.4851               7.6824       
       1112.2639              30.205               7.6398       
       1117.8252             29.9083               7.5976       
       1123.4143             29.5935               7.5556       
       1129.0314             29.2589               7.5139       
       1134.6765             28.9023               7.4725       
       1140.3499             28.5214               7.4312       
       1146.0517             28.1132               7.3885       
       1151.7819             27.6743               7.3461       
       1157.5408             27.2007               7.304        
       1163.3285             26.6875               7.2621       
       1169.1452             26.1287               7.2206       
       1174.9909             25.5167               7.1793       
       1180.8659             24.8419               7.1384       
       1186.7702             24.0918               7.0977       
        1192.704             23.2496               7.0573       
       1198.6676             22.2917               7.0172       
       1204.6609             21.1857               6.9774       
       1210.6842             19.8799               6.9379       
       1216.7376              18.29                6.8986       
       1222.8213             16.2608               6.8596       
       1228.9354             13.4483               6.8209       
       1235.0801             8.76614               6.7824       
       1241.0448             -14.6252              6.7455       
       1241.2555             -21.4128              26.448       
       1241.3551             -14.9723              26.445       
       1247.4618              7.7323               26.244       
       1253.6991             11.2864               26.042       
       1259.9676             12.6566               25.841       
       1266.2674             12.4859               25.641       
       1272.5988             8.84739               25.444       
       1274.7297             0.375774              25.378       
       1275.2703             0.286762              38.277       
       1278.9618             12.1356               38.103       
       1285.3566             17.2921               37.804       
       1291.7833             20.3204               37.508       
       1298.2423             22.5811               37.214       
       1304.7335             24.4201               36.923       
       1311.2571             25.9839               36.634       
       1317.8134             27.3503               36.347       
       1324.4025             28.5662               36.063       
       1331.0245             29.6627               35.78        
       1337.6796             30.6615               35.501       
        1344.368             31.5784               35.223       
       1351.0899             32.4253               34.948       
       1357.8453             33.2117               34.675       
       1364.6345             33.9449               34.404       
       1371.4577              34.631               34.135       
        1378.315             35.2747               33.869       
       1385.2066             35.8803               33.604       
       1392.1326             36.4511               33.342       
       1399.0933             36.9901               33.082       
       1406.0887             37.4997               32.824       
       1413.1192              37.982               32.568       
       1420.1848             38.4389               32.314       
       1427.2857             38.8719               32.062       
       1434.4221             39.2824               31.813       
       1441.5942             39.6715               31.565       
       1448.8022             40.0403               31.319       
       1456.0462             40.3894               31.075       
       1463.3265             40.7198               30.834       
       1470.6431             41.0317               30.594       
       1477.9963             41.3257               30.356       
       1485.3863              41.602               30.12        
       1492.8132             41.8607               29.886       
       1500.2773             42.1016               29.654       
       1507.7787             42.3245               29.423       
       1515.3176             42.5289               29.195       
       1522.8942             42.7137               28.968       
       1530.5086             42.8779               28.744       
       1538.1612             43.0195               28.521       
        1545.852             43.1358                28.3        
       1553.5812             43.2231               28.08        
       1561.3491             43.2756               27.862       
       1569.1559             43.2843               27.647       
       1577.0017             43.2344               27.432       
       1584.8867             43.0989               27.22        
       1592.8111             42.8205               27.009       
       1600.7752             42.2397                26.8        
        1608.779             40.4058               26.592       
       1609.8611             39.6252               26.565       
       1612.7389             39.6414               31.048       
       1616.8229             41.7185               30.919       
        1624.907              43.247               30.667       
       1633.0316             44.1265               30.416       
       1641.1967             44.7741               30.168       
       1649.4027             45.2968               29.922       
       1657.6497             45.7386               29.678       
        1665.938             46.1214               29.436       
       1674.2677             46.4572               29.196       
        1682.639             46.7528               28.957       
       1691.0522             47.0108               28.722       
       1699.5075             47.2386               28.507       
        1708.005              47.443               28.295       
        1716.545             47.6215               28.086       
       1725.1278             47.7705               27.88        
       1733.7534             47.8831               27.676       
       1742.4222              47.945               27.475       
       1751.1343             47.9218               27.276       
       1759.8899             47.6933               27.08        
       1766.0507             46.9089               26.944       
       1768.6894             46.6372               28.792       
       1769.3492              46.965               28.776       
       1777.5328             48.2501               28.575       
       1786.4205             48.8419               28.361       
       1795.3526             49.2675               28.15        
       1804.3294             49.6165               27.941       
        1813.351             49.9189               27.734       
       1822.4178             50.1884               27.53        
       1831.5299             50.4324               27.328       
       1840.6875              50.655               27.128       
       1849.8909             50.8584               26.93        
       1859.1404             51.0436               26.74        
       1868.4361             51.2174               26.558       
       1877.7783             51.3805               26.379       
       1887.1672             51.5326               26.202       
        1896.603              51.673               26.028       
        1906.086             51.8006               25.855       
       1915.6165             51.9135               25.685       
       1925.1945             52.0083               25.517       
       1934.8205             52.0783               25.351       
       1944.4946             52.1094               25.187       
       1954.2171             52.0624               25.025       
       1963.9882             51.7185               24.865       
       1964.2536             51.6931               24.861       
       1970.7463             51.7851               25.938       
       1973.8081             52.0833               25.888       
       1983.6772             52.5884               25.726       
       1993.5955             52.9146               25.566       
       2003.5635              53.179               25.408       
       2013.5813             53.4106               25.251       
       2023.6492             53.6213               25.096       
       2033.7675             53.8172               24.942       
       2043.9363             54.0019               24.79        
        2054.156             54.1777               24.639       
       2064.4268             54.3459               24.489       
       2074.7489             54.5082               24.342       
       2085.1227             54.6662               24.197       
       2095.5483             54.8205               24.052       
        2106.026              54.97                23.902       
       2116.5562             55.1146               23.753       
       2127.1389             55.2548               23.606       
       2137.7746              55.391               23.459       
       2148.4635             55.5237               23.314       
       2159.2058              55.653               23.169       
       2170.0018             55.7793               23.026       
       2180.8519             55.9026               22.884       
       2191.7561             56.0233               22.743       
       2202.7149             56.1415               22.602       
       2213.7285             56.2573               22.463       
       2224.7971             56.3709               22.325       
       2235.9211             56.4824               22.187       
       2247.1007             56.5919               22.051       
       2258.3362             56.6995               21.915       
       2269.6279             56.8055               21.781       
        2280.976             56.9099               21.647       
       2292.3809             57.0129               21.514       
       2303.8428             57.1145               21.379       
        2315.362             57.2137               21.244       
       2326.9388             57.3108               21.11        
       2338.5735             57.4059               20.977       
       2350.2664             57.4991               20.844       
       2362.0177             57.5905               20.712       
       2373.8278             57.6802               20.581       
        2385.697             57.7683               20.451       
       2397.6254             57.8547               20.321       
       2409.6136             57.9397               20.192       
       2421.6616             58.0231               20.064       
       2433.7699             58.1052               19.937       
       2445.9388              58.186               19.811       
       2458.1685             58.2654               19.685       
       2470.4593             58.3436               19.56        
       2482.8116             58.6401               19.436       
       2495.2257              58.716               19.308       
       2507.7018             58.7903               19.181       
       2520.2403              58.863               19.054       
       2532.8415             58.9343               18.929       
       2545.5057             59.0042               18.804       
       2558.2333             59.2221               18.678       
       2571.0244             59.2892               18.552       
       2583.8796             59.3545               18.426       
        2596.799             59.4182               18.301       
       2609.7829             59.4804               18.177       
       2622.8319             59.5411               18.054       
        2635.946             59.6004               17.931       
       2649.1257             59.6584               17.81        
       2662.3714              59.715               17.689       
       2675.6832             59.7704               17.57        
       2689.0617             59.8246               17.451       
        2702.507             59.8777               17.333       
       2716.0195             59.9296               17.216       
       2729.5996             59.9805               17.099       
       2743.2476             60.0304               16.984       
       2756.9638             60.0793               16.869       
       2770.7486             60.1273               16.753       
       2784.6024             60.1743               16.638       
       2798.5254             60.2204               16.523       
        2812.518             60.2655               16.409       
       2826.5806             60.3097               16.296       
       2840.7135             60.3531               16.184       
       2854.9171             60.3958               16.073       
       2869.1917             60.4377               15.962       
       2883.5376             60.4789               15.853       
       2897.9553             60.5195               15.745       
       2912.4451             60.5595               15.637       
       2927.0073             60.5992               15.53        
       2941.6424             60.6384               15.424       
       2956.3506             60.6775               15.319       
       2971.1323             60.7165               15.215       
        2985.988             60.7557               15.112       
       3000.9179             60.7956               15.009       
       3015.9225             60.8359               14.891       
       3031.0021             60.8734               14.775       
       3046.1571             60.9086               14.66        
       3061.3879             60.9417               14.546       
       3076.6949             60.9732               14.433       
       3092.0783              61.003               14.321       
       3107.5387             61.0315               14.21        
       3123.0764             61.0586                14.1        
       3138.6918             61.0844               13.99        
       3154.3853             61.1091               13.882       
       3170.1572             61.1328               13.775       
        3186.008             61.1554               13.669       
        3201.938              61.177               13.564       
       3217.9477             61.1978               13.46        
       3234.0374             61.3211               13.354       
       3250.2076             61.3406               13.249       
       3266.4587              61.359               13.144       
        3282.791             61.3763               13.04        
       3299.2049             61.3925               12.937       
       3315.7009             61.4078               12.835       
       3332.2794              61.422               12.734       
       3348.9408             61.4354               12.634       
       3365.6856             61.4479               12.534       
        3382.514             61.4596               12.436       
       3399.4265             61.4705               12.338       
       3416.4237             61.4807               12.242       
       3433.5058             61.4901               12.146       
       3450.6733             61.4988               12.051       
       3467.9267             61.5069               11.957       
       3485.2663             61.5143               11.864       
       3502.6927             61.5211               11.772       
       3520.2061             61.5273               11.68        
       3537.8072             61.5803               11.589       
       3555.4962             61.5858               11.497       
       3573.2737             61.5905               11.406       
        3591.14              61.5945               11.316       
       3609.0957             61.5978               11.227       
       3627.1412             61.6004               11.138       
       3645.2769             61.6023               11.05        
       3663.5033             61.6036               10.963       
       3681.8208             61.6044               10.877       
       3700.2299             61.6045               10.791       
       3718.7311             61.6041               10.706       
       3737.3247             61.6031               10.622       
       3756.0114             61.6016               10.539       
       3774.7914             61.5996               10.456       
       3793.6654             61.5971               10.374       
       3812.6337             61.5941               10.293       
       3831.6969             61.5907               10.213       
       3850.8554             61.5868               10.133       
       3870.1096             61.5824               10.054       
       3889.4602             61.5776               9.9761       
       3908.9075             61.5724               9.8986       
        3928.452             61.5668               9.8217       
       3948.0943             61.5835               9.7449       
       3967.8347             61.5773               9.6685       
       3987.6739             61.5705               9.5928       
        4055.024             61.9269               9.3434       
        4334.821             61.7228               8.4197       
        4633.924             61.4665               7.5975       
        4953.664             61.1604               6.8649       
        5295.467             60.7991               6.2113       
        5660.855             60.3598               5.6017       
        6051.453             59.7832               5.0463       
        6469.004             58.9836               4.5534       
        6915.365             57.7015               4.1161       
        7363.72              54.6368               3.7337       
        7392.525             54.1724               3.7112       
        7476.43              51.6171               3.6468       
        7506.486             48.0919               3.6242       
        7551.57              51.6124               10.464       
        7664.28              54.6597               10.133       
        7902.609             56.2924               9.4871       
        8086.568             56.3069               9.1064       
        8210.342             55.1953               8.8738       
        8243.349             53.5209               8.8144       
        8292.858             55.4015               12.167       
        8416.632             57.1642               11.841       
        8447.89              57.3859               11.761       
        8533.84              57.7981               11.547       
        8664.46              57.7495               11.235       
        8699.292             57.0199               11.163       
        8751.54              58.1155               12.789       
        8882.16              59.3813               12.511       
        9030.794             60.2005               12.202       
        9653.919             62.1877               11.006       
        10320.04             63.3585               9.862        
        11032.12             64.0963               8.8004       
        11793.34             64.5643               7.862        
        12607.08             64.8759               7.0353       
        13476.97             65.0801               6.301        
        14406.88             65.2095               5.6482       
        15400.95             65.3548               5.0597       
        16463.62             65.3846               4.5252       
        17599.61             65.4482               4.0404       
        18813.98             65.4127               3.6017       
        20112.15             65.3547               3.2134       
        21499.88             65.2827               2.8695       
        22983.38              65.202               2.5647       
        24569.23             65.1162               2.2943       
        26264.5              65.0301               2.0543       
        28076.76             64.9464               1.8264       
        30014.05             64.8428               1.6209       
        32085.02             64.7303               1.4399       
        34298.89             64.6085               1.2777       
        36665.51             64.4733               1.1329       
        39195.43             64.3176               1.0021       
        41899.92             64.1253              0.88527       
        44791.01             63.8653               0.7821       
        47881.59             63.4418              0.69148       
        50955.79             62.3594              0.61688       
        51185.42             62.1547              0.61183       
        51735.72             61.1993              0.59999       
        51943.71             59.8099              0.59561       
        52255.68              61.214               3.3244       
        53035.61             62.4827               3.2494       
        54717.21             63.3932               3.0964       
        58492.7              64.2121                2.78        
        62528.7              64.6272               2.4918       
        66843.18             64.8831               2.2322       
        71455.36             65.0525               1.9977       
        76385.78             65.1669               1.7875       
        81656.4              65.2468               1.5972       
        87290.69             65.2984               1.4228       
        93313.74             65.3289               1.2675       
        99752.39             65.3454               1.1294       
        106635.3             65.3814               1.0049       
        113993.1             65.3781              0.89182       
        121858.7             65.3683              0.79157       
        130266.9             65.3544              0.70266       
        139255.3             65.3378              0.62379       
        148864.0             65.3196              0.55382       
        159135.6             65.3004              0.49174       
        170115.9              65.281              0.43666       
        181853.9             65.2617              0.38778       
        194401.8             65.2427              0.34439       
        207815.6             65.2242              0.30589       
        222154.8             65.2063              0.27171       
        237483.5             65.1893              0.24224       
        253869.9             65.1737              0.21619       
        271386.9             65.1593              0.19295       
        290112.6             65.1459              0.17223       
        310130.4             65.1335              0.15374       
        331529.4             65.1221              0.13724       
        354404.9             65.1115              0.12252       
        378858.8             65.1017              0.10939       
        405000.1             65.0928              0.097665      
        432945.1             65.0845              0.087205      
