# Tc
# Form Factors from Chantler Tables
# DOI: https://dx.doi.org/10.18434/T4HS32
# automatically retrived 2019-02-28 using URL https://physics.nist.gov/cgi-bin/ffast/ffast.pl

# For f_rel the second term, which is 3/5th of the Cromer-Liberman value, is used as suggested by Chantler.
# Real and imaginary part of the formfactors are: f'(E)=f1(E)+f_rel+f_NT and f''(E)=f2(E)
# see also original publication:  https://doi.org/10.1063/1.555974

# Z = 43
# f_rel = -0.228 e/atom  (Relativistic correction estimate)
# f_NT = -0.01035 e/atom (Nuclear Thomson correction)


#        E (eV)            f1 (e/atom)          f2 (e/atom)     
        6.594833             4.82558                0.0         
        6.695774             4.59453                0.0         
        6.722692             4.41601                0.0         
        6.763068             4.50917              0.28287       
        6.86401              4.44636               0.2741       
        6.871351             4.43283              0.27348       
        6.976524             3.99241              0.26479       
        7.004571             3.43742              0.26254       
        7.04664              4.02391               1.3562       
        7.151814             4.52865               1.316        
         10.69               3.69822               1.9224       
        11.42761             3.35022               2.4517       
        12.21612             3.04621               3.1433       
        13.05903             2.83967               4.0047       
        13.9601              2.79407               5.0239       
        14.92335             2.97422               6.1624       
        15.95306             3.43337               7.3533       
        17.05382             4.19913               8.5056       
        18.23053             5.26243               9.5168       
        19.48844             6.57362               10.29        
        20.83314              8.0514               10.753       
        22.27063             9.59139               10.869       
        23.8073              11.0679               10.643       
        25.45001             12.3918               10.118       
        27.20606             13.4889               9.3601       
        29.08327             14.3111               8.4491       
        31.09002             14.8282               7.4627       
        33.23523             15.0121               6.4738       
        35.52846             14.7684               5.5364       
        37.97993             13.3431               4.6841       
         38.122              13.1246               4.6393       
        38.7055              11.1702               4.4606       
        38.8611              8.71925               4.4142       
        39.0945               11.433               9.2224       
         39.678              13.8226               8.7692       
        40.60054             15.1868               8.1102       
        43.40198             16.5957               6.4701       
        46.39671             16.9305               5.2237       
        49.59809              16.919               4.2849       
        53.02035             16.7624               3.5682       
        56.67876             16.5406               3.0159       
        60.58959             16.2876               2.5871       
        64.77028             16.0082               2.2526       
         67.032              15.8314                2.11        
         68.058              15.6989               2.0523       
        68.3316               15.594               2.0376       
         68.742              15.6614               2.1929       
        69.23942             15.6855               2.1696       
         69.768              15.6858               2.1457       
        74.01695             15.5655               1.9838       
        79.12411             15.3932               1.8436       
        84.58368             15.2214               1.7381       
        90.41995             15.0539               1.6596       
        96.65893             14.8894               1.6023       
        103.3284             14.7251               1.5616       
        110.4581             14.5568               1.5338       
        118.0797             14.3659               1.516        
        126.2272             14.1734               1.5058       
        134.9368             13.9586               1.5076       
        144.2475             13.7169               1.5202       
        154.2005             13.4373               1.5352       
        164.8404              13.104               1.5516       
        176.2144             12.6951               1.568        
        188.3732             12.1779               1.5835       
        201.3709             11.4995               1.5974       
        215.2655             10.5653               1.609        
        230.1188             9.14953               1.6179       
        245.997              6.38418               1.6235       
        247.842              5.80494               1.6239       
        251.272              4.08107               1.6245       
        251.6355             3.76123               1.6246       
        252.6471             2.03092               1.6247       
        254.1645             2.86996               4.4826       
        255.118              2.87946               4.5451       
        256.1436             2.07427               4.6135       
        257.682              3.14086               6.6747       
        257.958              3.26901               6.7057       
        261.528               4.0085               7.1221       
        262.9708             4.13181               7.2981       
        281.1158             4.40739               9.9312       
        300.5128             5.07732               13.083       
        321.2482             6.59798               16.043       
        343.4143             8.79609               18.465       
        367.1099             11.3486               20.151       
        392.4405              13.824               21.056       
         416.5               15.1673               21.258       
        419.5189             15.0733               21.248       
        422.875               14.572               21.23        
        424.575              13.3707               21.217       
        427.125              14.9086               23.814       
         433.5               16.5109               23.757       
        436.002              16.8695               23.727       
        442.6755             17.3684               23.633       
        444.4551             17.0243               23.604       
        447.1245              17.94                24.693       
        448.4657             18.2734               24.67        
        453.798              19.2209               24.574       
        479.4098             22.1872               23.978       
        512.4891             24.8222               22.983       
        536.648              26.0979               22.175       
        544.862              26.1559               21.894       
        547.0524             25.7769               21.819       
        547.8508             25.5775               22.778       
        550.338              26.4692               22.693       
        558.552              27.3518               22.41        
        585.6525             29.0479               21.484       
        626.0625             30.8296               20.157       
        669.2609             32.2455               18.842       
        715.4399             33.4075               17.572       
        764.8052             34.3822               16.319       
        817.5768             35.1671               15.113       
        873.9896             35.7977               13.979       
        934.2948             36.3196               12.921       
        998.7612             36.7772               11.935       
        1067.676             37.1357               10.834       
        1141.345             37.3028               9.8127       
        1220.098             37.3608               8.9011       
        1304.285              37.347               8.0867       
        1394.281             37.2693               7.3578       
        1490.486             37.1397               6.7054       
        1593.329             36.9636               6.121        
        1703.269              36.744               5.5959       
        1820.795              36.456               5.0865       
        1946.43              36.0649               4.619        
        2080.733             35.5373                4.2         
        2224.304             34.7971               3.8225       
        2377.781             33.6483               3.4791       
        2541.848             31.3904               3.1701       
        2623.362             28.7881               3.0348       
        2663.515             25.0323               2.972        
        2674.223             20.7808               2.9556       
        2690.284              24.844               11.112       
        2717.235             27.5114               10.908       
        2730.438             28.0698               10.811       
        2737.336             28.2666               10.76        
        2779.234             28.0038               10.462       
        2790.407             26.2259               10.384       
        2807.166             28.6758               14.318       
        2849.064              31.257               13.966       
        2904.724             32.8473               13.532       
        2981.65               33.965               13.001       
        3027.288             33.8793               12.694       
        3039.458             33.0922               12.611       
        3057.713             34.2883               14.368       
        3105.15              35.7277               14.032       
        3319.406             38.4624               12.651       
        3548.445             39.9967               11.386       
        3793.288             41.0105               10.235       
        4055.024             41.7156               9.1995       
        4334.821             42.2095               8.2654       
        4633.924             42.5576               7.4299       
        4953.664              42.803               6.6808       
        5295.467             42.9757               6.0099       
        5660.855              43.223               5.3838       
        6051.453             43.2768               4.813        
        6469.004             43.3256               4.2974       
        6915.365             43.3043               3.8397       
        7392.525             43.2619               3.434        
        7902.609             43.2061               3.074        
        8447.89              43.1423               2.7519       
        9030.794             43.0782               2.4588       
        9653.919             43.0003               2.1809       
        10320.04             42.9078               1.9363       
        11032.12              42.808               1.7198       
        11793.34             42.7034               1.5276       
        12607.08             42.5915               1.3533       
        13476.97             42.4704               1.1976       
        14406.88             42.3348               1.0573       
        15400.95             42.1793              0.93432       
        16463.62             41.9933               0.8264       
        17599.61             41.7525              0.73162       
        18813.98             41.3935              0.64823       
        20112.15             40.6536              0.57486       
        20623.12             39.9411               0.5496       
        20938.78             38.6303              0.53488       
        21022.96             37.0523              0.53106       
        21149.22             38.6579               3.6354       
        21464.88              40.11                3.539        
        21499.88             40.1953               3.5286       
        22983.38             41.7384               3.1461       
        24569.23             42.3426               2.8263       
        26264.5              42.7056               2.5402       
        28076.76              42.952               2.2694       
        30014.05             43.1118               2.021        
        32085.02              43.218               1.7999       
        34298.89             43.2885               1.6032       
        36665.51             43.3341               1.4282       
        39195.43             43.3624               1.2725       
        41899.92             43.3789               1.1338       
        44791.01             43.4189               1.0031       
        47881.59             43.4135              0.88705       
        51185.42             43.4018              0.78449       
        54717.21             43.3859              0.69384       
        58492.7              43.3675              0.61369       
        62528.7              43.3477              0.54278       
        66843.18             43.3271              0.47993       
        71455.36             43.3064              0.42419       
        76385.78              43.286              0.37495       
        81656.4              43.2669               0.331        
        87290.69             43.2479              0.29131       
        93313.74             43.2291              0.25624       
        99752.39             43.2109              0.22515       
        106635.3             43.1935              0.19785       
        113993.1             43.1771              0.17387       
        121858.7             43.1617               0.1528       
        130266.9             43.1474              0.13429       
        139255.3             43.1342              0.11803       
        148864.0             43.1219              0.10374       
        159135.6             43.1106              0.091183      
        170115.9             43.1002              0.080151      
        181853.9             43.0907              0.070456      
        194401.8              43.082              0.061936      
        207815.6             43.0741              0.054449      
        222154.8             43.0669              0.047869      
        237483.5             43.0603              0.042085      
        253869.9             43.0543              0.037001      
        271386.9             43.0489              0.032533      
        290112.6              43.044              0.028605      
        310130.4             43.0396              0.025152      
        331529.4             43.0356              0.022117      
        354404.9             43.0319              0.019448      
        378858.8             43.0287              0.017102      
        405000.1             43.0257              0.01504       
        432945.1              43.023              0.013226      
