# Te
# Form Factors from Chantler Tables
# DOI: https://dx.doi.org/10.18434/T4HS32
# automatically retrived 2019-02-27 using URL https://physics.nist.gov/cgi-bin/ffast/ffast.pl
#
# Z = 52
# f_rel = -0.58644 e/atom  (Relativistic correction estimate)
# f_NT = -0.011625 e/atom (Nuclear Thomson correction)


#        E (eV)            f1 (e/atom)          f2 (e/atom)     
         10.69               5.02171                0.0         
        11.42761             4.95273                0.0         
        12.21612             4.87306                0.0         
        13.05903             4.78087                0.0         
        13.9601              4.67402                0.0         
        14.92335             4.54987                0.0         
        15.95306             4.40528                0.0         
        17.05382             4.23635                0.0         
        18.23053              4.0383                0.0         
        19.48844              3.8051                0.0         
        20.83314             3.52916                0.0         
        22.27063             3.20063                0.0         
        23.8073              2.80664                0.0         
        25.45001             2.32987                0.0         
        27.20606             1.74643                0.0         
        29.08327             1.02221                0.0         
        31.09002             0.106352               0.0         
        33.23523             -1.08165               0.0         
        35.52846             -2.68102               0.0         
        37.97993             -4.97638               0.0         
         39.004              -6.23915               0.0         
         39.601              -7.16454               0.0         
        39.7602              -7.53159               0.0         
         39.999              -7.79861             0.26938       
        40.60054             -8.69306             0.39162       
        43.40198             -14.6624              2.0857       
        46.39671             -22.7141              9.0143       
        49.59809             -27.1819              23.696       
        53.02035             -21.1494              41.736       
        56.67876             -4.60076              53.777       
        60.58959             14.9668               54.618       
        64.77028             30.0555               46.556       
        69.23942             38.0387               35.09        
        74.01695             40.2145               24.414       
        79.12411             39.0346               16.236       
        84.58368             36.4569               10.612       
        90.41995             33.5946               6.966        
        96.65893             30.9241               4.6687       
        103.3284             28.5341               3.2331       
        107.996              26.9218               2.5916       
        109.649              26.0467               2.4126       
        110.0898             25.3687               2.3683       
        110.4581              25.602               3.471        
        110.751              25.8166               3.4406       
        112.404              25.9837               3.2799       
        118.0797             25.4097               2.8411       
        126.2272             24.4131               2.4261       
        134.9368             23.5329               2.1678       
        144.2475             22.7549               2.0161       
        154.2005             22.0521               1.939        
        164.8404             21.3284               1.917        
        164.934              21.3207               1.917        
        167.4585             21.0437               1.9185       
        168.1317             20.8308               1.9192       
        169.1415             20.9635               2.2751       
        171.666              21.0059               2.2855       
        176.2144             20.9123               2.3086       
        188.3732              20.578               2.3917       
        201.3709              20.247               2.5018       
        215.2655             19.9365               2.6328       
        230.1188             19.6437               2.7816       
        245.997              19.3624               2.9453       
        262.9708             19.0847               3.1207       
        281.1158             18.8008               3.3043       
        300.5128             18.4978               3.4917       
        321.2482             18.1581               3.6779       
        343.4143             17.7479               3.8574       
        367.1099             17.2479               4.0242       
        392.4405             16.5932               4.1725       
        419.5189             15.6938               4.2972       
        448.4657             14.3924               4.3941       
        479.4098             12.3763               4.4592       
        512.4891             8.87098               4.491        
        547.8508             0.787758              4.4905       
        560.658              -6.28018              4.483        
        569.2395             -18.7866              4.4762       
         570.85              -25.7911              4.4748       
        571.5279             -32.2115              4.4742       
        574.9605             -20.6063              29.296       
        579.5875             -17.1582              28.851       
        581.9175             -23.0368              28.631       
        583.542              -18.4736              44.853       
        585.6525             -11.0295              44.528       
         594.15              0.571545              43.258       
        626.0625             16.0555               38.96        
        669.2609             24.1327               34.422       
        715.4399             28.3771               31.032       
        764.8052             30.7857               28.276       
        802.326              31.1006               26.502       
        814.6065             29.9606               25.969       
        817.5768             28.5887               25.843       
        817.8813             28.2393               25.831       
        822.7935             30.2193               29.191       
        835.074               32.121               28.686       
        852.306              33.2176               28.006       
        865.3515             33.3477               27.511       
        868.8303             32.7617               27.381       
        873.9896             33.7989               28.707       
        874.0485             33.8085               28.705       
        887.094              35.0964               28.239       
        934.2948             37.4949               26.663       
         985.88              39.0244               25.112       
        998.7612             39.1176               24.759       
        1000.97              39.0626               24.694       
        1004.994             38.6076               24.564       
        1011.03               39.362               25.499       
        1026.12               40.28                25.017       
        1067.676             41.6539               23.768       
        1141.345             43.2237               21.817       
        1220.098             44.3693               20.028       
        1304.285             45.2519               18.393       
        1394.281             45.9578               16.88        
        1490.486             46.4985               15.44        
        1593.329             46.8807               14.101       
        1703.269             47.1403               12.882       
        1820.795             47.3202               11.773       
        1946.43              47.4163               10.766       
        2080.733             47.4762               9.8467       
        2224.304             47.4681               8.9995       
        2377.781             47.4141               8.1995       
        2541.848             47.2925               7.447        
        2717.235             47.0977               6.7743       
        2904.724             46.8476               6.1722       
        3105.15              46.6153               5.5748       
        3319.406             46.1977               4.9906       
        3548.445              45.566               4.4525       
        3793.288             44.6074               3.9705       
        4055.024             42.9161               3.5466       
        4254.572             39.8866               3.2731       
        4319.693             36.4828               3.1916       
        4334.821             33.5784               3.1732       
        4337.059             32.5661               3.1704       
        4363.107             36.4143               10.73        
        4428.228             39.6387               10.375       
        4519.76              40.6986               9.9045       
        4588.94              39.8588               9.5928       
        4607.388              38.101               9.5193       
        4633.924             40.1981               13.189       
        4635.06              40.2695               13.182       
        4704.24              42.4355               12.795       
        4840.416              43.901               12.099       
        4914.504             43.7836               11.775       
        4934.261              43.007               11.693       
        4953.664              43.762               13.446       
        4963.896             44.1527               13.402       
        5037.984             45.4697               13.093       
        5295.467             47.4921               12.143       
        5660.855             49.0633               11.024       
        6051.453             50.1223               9.9599       
        6469.004             50.8541               8.9652       
        6915.365             51.3603               8.0533       
        7392.525             51.7086               7.2315       
        7902.609              51.947               6.4957       
        8447.89               52.111               5.8397       
        9030.794             52.3131               5.2387       
        9653.919             52.4118               4.6582       
        10320.04             52.4525               4.1358       
        11032.12             52.4176               3.6712       
        11793.34             52.3573               3.261        
        12607.08             52.2804               2.8992       
        13476.97             52.1929               2.5799       
        14406.88             52.0983               2.2978       
        15400.95             51.9993               2.0485       
        16463.62             51.8967               1.8263       
        17599.61             51.7907               1.6292       
        18813.98             51.6814               1.4547       
        20112.15             51.5662               1.2957       
        21499.88             51.4406               1.1532       
        22983.38              51.298               1.0224       
        24569.23              51.128              0.90723       
        26264.5              50.9118              0.80574       
        28076.76              50.606              0.70918       
        30014.05             50.0202               0.6227       
        31177.52             49.1381              0.57843       
        31654.73             47.8928              0.56169       
        31781.99             46.3982              0.55735       
        31972.87             47.9119               3.4947       
        32085.02              48.433               3.4746       
        32450.08             49.2809               3.4107       
        34298.89             50.6702               3.1135       
        36665.51             51.3278               2.7886       
        39195.43              51.698               2.4971       
        41899.92              51.938               2.2343       
        44791.01             52.0975               1.9932       
        47881.59             52.2041               1.7775       
        51185.42             52.2749               1.5846       
        54717.21             52.3206               1.4123       
        58492.7              52.3484               1.2587       
        62528.7              52.3636               1.1216       
        66843.18             52.4005              0.99655       
        71455.36             52.3964              0.88454       
        76385.78             52.3867              0.78519       
        81656.4              52.3744              0.69597       
        87290.69             52.3584              0.61479       
        93313.74             52.3395              0.54312       
        99752.39             52.3193              0.47984       
        106635.3             52.2986              0.42397       
        113993.1              52.278              0.37464       
        121858.7             52.2578              0.33107       
        130266.9             52.2384              0.29258       
        139255.3             52.2197              0.25859       
        148864.0              52.202              0.22858       
        159135.6             52.1854              0.20207       
        170115.9             52.1697              0.17864       
        181853.9             52.1552              0.15794       
        194401.8             52.1416              0.13964       
        207815.6             52.1291              0.12347       
        222154.8             52.1175              0.10918       
        237483.5             52.1068              0.09655       
        253869.9              52.097              0.085384      
        271386.9              52.088              0.075514      
        290112.6             52.0797              0.066788      
        310130.4             52.0722              0.059073      
        331529.4             52.0653              0.052252      
        354404.9              52.059              0.046221      
        378858.8             52.0533              0.040888      
        405000.1             52.0481              0.036171      
        432945.1             52.0434              0.032001      
