# Th
# Form Factors from Chantler Tables
# DOI: https://dx.doi.org/10.18434/T4HS32
# automatically retrived 2019-02-27 using URL https://physics.nist.gov/cgi-bin/ffast/ffast.pl
#
# Z = 90
# f_rel = -2.4308 e/atom  (Relativistic correction estimate)
# f_NT = -0.01915 e/atom (Nuclear Thomson correction)


#        E (eV)            f1 (e/atom)          f2 (e/atom)     
         10.69               26.1909                0.0         
        11.42761             26.1747                0.0         
        12.21612              26.156                0.0         
        13.05903             26.1344                0.0         
        13.9601              26.1094                0.0         
        14.92335             26.0805                0.0         
        15.95306             26.0468                0.0         
        17.05382             26.0075                0.0         
        18.23053             25.9615                0.0         
        19.48844             25.9075                0.0         
        20.83314             25.8437                0.0         
        22.27063              25.768                0.0         
        23.8073              25.6773                0.0         
        25.45001             25.5675                0.0         
        27.20606             25.4331                0.0         
        29.08327             25.2654                0.0         
        31.09002             25.0513                0.0         
        33.23523              24.768                0.0         
        35.52846             24.3716                0.0         
        37.97993             23.7586                0.0         
        40.60054             22.5604                0.0         
         42.14               20.7833                0.0         
         42.785              18.2078                0.0         
         42.957              15.0579                0.0         
         43.215              18.4936               6.2225       
        43.40198             19.8275               6.1089       
         43.86                21.455               5.8413       
        46.39671             23.8408               4.5952       
         48.02               23.5458               3.969        
         48.755              22.2214               3.7229       
         48.951              20.3983               3.6609       
         49.245              22.4783               7.2684       
        49.59809             23.6759               7.0823       
         49.98               24.3778               6.8885       
        53.02035             26.4301               5.581        
        56.67876             27.0453               4.4349       
         58.31               27.0765               4.0354       
        59.2025              26.9974               3.8396       
        59.4405              26.8837               3.7899       
        59.7975               27.006               3.9429       
        60.58959             27.0943               3.7785       
         60.69               27.0987               3.7584       
        64.77028             26.9725               3.0621       
        69.23942             26.4968               2.5065       
        74.01695             25.6863               2.0745       
        79.12411             24.3204               1.7349       
        84.58368             21.3271               1.4655       
         86.142              19.3923               1.4018       
        87.4605               15.26                1.3516       
        87.8121              10.5314               1.3388       
        88.3395              15.2455               10.479       
         89.658              19.1082               10.267       
        90.41995             19.9602               10.148       
         92.414              20.6364               9.8487       
        93.8285               19.067               9.6467       
        94.2057              16.3088               9.5941       
        94.7715              19.6559               15.359       
         96.186              23.0007               15.131       
        96.65893             23.6508               15.057       
        103.3284              28.78                13.806       
        110.4581             31.7444               12.059       
        118.0797             33.4529               9.9814       
        126.2272             34.1995               7.9913       
        134.9368             34.2958               6.2997       
        144.2475             33.9918               4.961        
        154.2005             33.4567               3.9461       
        164.8404             32.7642               3.1953       
        176.2144             31.8283               2.647        
        178.164              31.5922               2.5722       
        180.891              31.0082               2.4753       
        181.6182             30.4467               2.4508       
        182.709              30.9264               3.4426       
        185.436              31.2521               3.3473       
        188.3732             31.3039               3.2527       
        201.3709             31.0131               2.9151       
        215.2655             30.4439               2.6679       
        224.812              29.8917               2.5468       
        228.253              29.4946               2.5105       
        229.1706             29.1368               2.5014       
        230.1188             29.3458               3.1319       
        230.547              29.4284               3.1242       
        233.988              29.5932               3.0655       
        245.997              29.3664               2.8929       
        262.9708             28.6973               2.7185       
        281.1158             27.7574               2.6016       
        284.396              27.5493               2.5861       
        288.749              27.2131               2.5676       
        289.9098             27.0395               2.5631       
        291.651              27.0428               2.7642       
        296.004              26.8697               2.7511       
        300.5128             26.6201               2.7396       
        321.2482             25.1289               2.7077       
        328.496              24.4414               2.703        
        333.524              23.8213               2.7013       
        334.8648             23.5307               2.701        
        336.876              23.4319               2.9966       
        337.512              23.3851               3.0053       
        341.904               22.923               3.0731       
        342.678              22.8178               3.0865       
        343.4143              22.701               3.0997       
        344.0556             22.5576               3.1115       
        346.122              22.4336               3.3865       
        351.288              21.9364               3.5645       
        367.1099             20.0231               4.4154       
        392.4405             16.7831               7.1039       
        419.5189             14.1508               11.622       
        448.4657             13.1384               17.55        
        479.4098             14.3156               23.895       
        512.4891             17.5452               29.557       
        547.8508             22.1551               33.777       
        585.6525             27.2567               36.283       
        626.0625             31.9663               37.198       
        662.872              34.5665               36.966       
        669.2609             34.4716               36.854       
        673.018              34.0022               36.78        
        675.7236             32.5186               36.723       
        679.782              34.5273               39.972       
        689.928              36.7196               39.785       
        699.818              37.8532               39.573       
        710.5295             38.2815               39.315       
        713.3859             37.5786               39.242       
        715.4399             38.1919               41.177       
        717.6705             39.0442               41.128       
        728.382              40.9945               40.878       
        764.8052             44.9421               39.918       
        817.5768             48.9586               38.34        
        873.9896             52.0627               36.575       
        934.2948             54.1871               34.753       
        947.954              54.3718               34.36        
        962.4635             53.9628               33.951       
        966.3327             52.9747               33.844       
        972.1365             54.3283               35.901       
        986.646              55.8372               35.51        
        998.7612             56.6113               35.192       
        1067.676             59.6223               33.269       
        1141.345             61.7056               31.392       
        1144.836             61.7815               31.305       
        1162.359             62.0428               30.854       
        1167.032             61.9319               30.736       
        1174.041             62.3361               31.003       
        1191.564             62.9405               30.57        
        1220.098             63.6643               29.87        
        1302.91               65.113               27.954       
        1304.285             65.1281               27.924       
        1322.852             65.2187               27.527       
        1328.17              65.0333               27.416       
        1336.147             65.4457               27.784       
        1356.09              65.9912               27.34        
        1394.281             66.6735               26.477       
        1490.486             67.8083               24.451       
        1593.329             68.5722               22.623       
        1703.269             69.0935               20.944       
        1820.795             69.4038               19.396       
        1946.43              69.5328               17.987       
        2080.733              69.504               16.713       
        2224.304             69.3177               15.559       
        2377.781             68.9539               14.51        
        2541.848             68.3469               13.55        
        2717.235              67.397               12.67        
        2904.724             65.8273               11.779       
        3105.15              62.7555               10.766       
        3265.36              56.4413               9.9671       
        3315.34              49.8314               9.7405       
        3319.406             48.5588               9.7225       
        3328.668             42.6554               9.6817       
        3348.66              48.9995               23.222       
        3398.64              53.8257               23.169       
        3420.984             54.3109               23.148       
        3473.346             52.1394               23.103       
        3487.309             47.2186               23.093       
        3508.254             53.6217               33.748       
        3548.445             59.1957               33.101       
        3560.616             60.2205               32.903       
        3793.288              68.991               29.417       
        3965.178             70.7696               27.185       
        4025.87              69.6889               26.448       
        4042.054             67.6045               26.257       
        4055.024             68.8475               30.612       
        4066.331              70.174               30.47        
        4127.022             72.8891               29.725       
        4334.821             76.4784               27.409       
        4633.924             78.8363               24.678       
        4733.792              79.134               23.854       
        4806.248             78.8658               23.286       
        4825.57              78.1943               23.139       
        4854.552             79.0758               24.418       
        4927.008             80.0402               23.885       
        4953.664             80.2534               23.694       
        5078.654             80.9038               22.836       
        5156.389             80.9152               22.329       
        5177.118             80.5251               22.198       
        5208.212             81.1716               22.975       
        5285.946             81.9615               22.498       
        5295.467             82.0302               22.44        
        5660.855             83.7431                20.4        
        6051.453             84.8168               18.549       
        6469.004             85.5864               16.866       
        6915.365             86.2858               15.296       
        7392.525             86.7388               13.846       
        7902.609             86.9518               12.553       
        8447.89              87.1749               11.388       
        9030.794             87.3194               10.307       
        9653.919             87.2509               9.2288       
        10320.04             87.1265               8.2609       
        11032.12             86.8947               7.3993       
        11793.34             86.5667               6.6379       
        12607.08             86.1496               5.9644       
        13476.97             85.6059               5.3635       
        14406.88             84.8326               4.8281       
        15400.95             83.4505                4.34        
        15974.29             81.6017               4.0941       
        16218.8              79.0611               3.9969       
        16284.0              76.0712               3.9716       
        16381.8              79.0529               9.788        
        16463.62             80.3818               9.7109       
        16626.31             81.7029               9.5605       
        17599.61              84.149               8.7161       
        18813.98             84.5346               7.7725       
        19299.34             84.0137               7.4369       
        19594.73             82.7868               7.2435       
        19673.51             81.2699               7.1932       
        19791.67             82.7857               10.103       
        20062.66             83.9989               9.8825       
        20087.06             84.0465               9.863        
        20112.15             84.0894               9.843        
        20369.74             84.1042               9.6416       
        20451.63              83.496               9.5789       
        20574.46             84.4507               10.973       
        20881.54             85.5442               10.734       
        21499.88             86.6258               10.271       
        22983.38             87.9963               9.2629       
        24569.23             88.8005               8.3504       
        26264.5               89.343               7.5314       
        28076.76              89.736               6.7506       
        30014.05             89.9689               6.042        
        32085.02             90.1138               5.4126       
        34298.89             90.2537               4.842        
        36665.51             90.2855               4.3329       
        39195.43             90.2857               3.8815       
        41899.92             90.3247               3.468        
        44791.01             90.2774               3.0935       
        47881.59             90.2124               2.7615       
        51185.42             90.1362               2.467        
        54717.21             90.0521               2.2056       
        58492.7              89.9624               1.9734       
        62528.7              89.8678               1.767        
        66843.18             89.7685               1.5833       
        71455.36             89.6635               1.4194       
        76385.78             89.5493               1.2714       
        81656.4              89.4238               1.1368       
        87290.69             89.2693               1.0106       
        93313.74             89.0604              0.89633       
        99752.39             88.7342               0.795        
        106635.3             87.9446              0.70562       
        107457.9             87.7255              0.69603       
        109102.6             86.7428              0.67747       
        109541.3              85.568              0.67265       
        110199.2             86.7915               2.9769       
        111843.9             87.8609               2.9101       
        113993.1             88.4013               2.8262       
        121858.7             89.2165               2.5488       
        130266.9             89.5995               2.2961       
        139255.3             89.8307               2.0668       
        148864.0             89.9822               1.8601       
        159135.6             90.0854               1.6732       
        170115.9             90.1548               1.5039       
        181853.9             90.2007               1.3518       
        194401.8             90.2299               1.2151       
        207815.6             90.2469               1.0924       
        222154.8             90.2549              0.98224       
        237483.5             90.2562              0.88375       
        253869.9             90.2533               0.7955       
        271386.9             90.2471              0.71615       
        290112.6             90.2387              0.64479       
        310130.4             90.2286              0.58061       
        331529.4             90.2174              0.52287       
        354404.9             90.2056              0.47092       
        378858.8             90.1936              0.42417       
        405000.1             90.1815              0.38211       
        432945.1             90.1695              0.34424       
