# Tl
# Form Factors from Chantler Tables
# DOI: https://dx.doi.org/10.18434/T4HS32
# automatically retrived 2019-02-28 using URL https://physics.nist.gov/cgi-bin/ffast/ffast.pl

# For f_rel the second term, which is 3/5th of the Cromer-Liberman value, is used as suggested by Chantler.
# Real and imaginary part of the formfactors are: f'(E)=f1(E)+f_rel+f_NT and f''(E)=f2(E)
# see also original publication:  https://doi.org/10.1063/1.555974

# Z = 81
# f_rel = -1.0794 e/atom  (Relativistic correction estimate)
# f_NT = -0.01761 e/atom (Nuclear Thomson correction)


#        E (eV)            f1 (e/atom)          f2 (e/atom)     
        9.471535             2.89482                0.0         
        9.616508             2.43653                0.0         
        9.655167             1.93601                0.0         
        9.713156             2.41962              0.95738       
        9.858128             2.80732              0.94093       
         10.69               3.01632              0.85572       
        11.42761             2.81513              0.76359       
        12.21612             2.31826              0.64656       
         12.838              1.41314              0.55653       
        13.0345              0.479375             0.52967       
        13.05903             0.170913             0.52639       
        13.0869             -0.576446             0.52267       
        13.1655              0.48965               2.5504       
         13.362              1.35585               2.4444       
        13.9601              1.81934               2.1538       
        14.92335             1.26447               1.8083       
         14.994              1.16047               1.7938       
        15.2235              0.544732              1.7565       
        15.2847             -0.0942078             1.7489       
        15.3765              0.491862              2.9353       
         15.606              0.917787              2.8917       
        15.95306             1.01599               2.8481       
        17.05382             0.615267              2.8623       
        18.23053            -0.211345              3.1946       
        19.48844             -1.22195              3.8982       
        20.83314             -2.31842              5.0236       
        22.27063             -3.38921              6.6455       
        23.8073              -4.27166              8.8266       
        25.45001             -4.7481               11.575       
        27.20606             -4.56925              14.806       
        29.08327             -3.50478              18.312       
        31.09002             -1.40836              21.773       
        33.23523               1.72                 24.8        
        35.52846             5.70679               27.017       
        37.97993             10.2244               28.143       
        40.60054             14.8506               28.061       
        43.40198              19.178               26.836       
        46.39671             22.8632               24.683       
        49.59809             25.6983               21.909       
        53.02035             27.6143               18.838       
        56.67876             28.6585               15.762       
        60.58959             28.9544               12.896       
        64.77028             28.6433               10.368       
        69.23942             27.8132               8.2343       
         73.892              26.1391               6.5313       
        74.01695             26.0553               6.4917       
         75.023              24.8949               6.1837       
        75.3246              23.5501               6.0949       
         75.777              24.8694               8.5263       
         76.908              25.9023               8.1044       
        79.12411             26.3345               7.353        
        84.58368             26.1109               5.8588       
        90.41995             25.3542               4.707        
        96.65893             24.1818               3.8281       
         97.608               23.908               3.7182       
         99.102              23.1352               3.5558       
        99.5004              22.3738               3.5146       
        100.098              23.0489               4.8603       
        101.592              23.5242               4.685        
        103.3284             23.6206               4.4954       
        110.4581             23.2784               3.8498       
         116.13              22.6952               3.4384       
        117.9075             22.3619               3.3227       
        118.0797             22.3037               3.3118       
        118.3815             22.1224               3.2929       
        119.0925             22.2329               3.6236       
        120.344              22.2225               3.5593       
         120.87              22.1855               3.5332       
        122.186              22.0234                3.47        
        122.6772             21.8574               3.4473       
        123.414              21.9417               3.6815       
        125.256              21.9267               3.615        
        126.2272             21.8818               3.5824       
        133.574              21.3523               3.3886       
        134.9368             21.2226               3.3636       
        135.6185             21.1444               3.3524       
        136.1637             21.0446               3.3441       
        136.9815             21.0336               3.4424       
        139.026              20.9125               3.4222       
        144.2475             20.5035               3.4079       
        154.2005             19.6476               3.5226       
        164.8404             18.7015               3.8405       
        176.2144             17.6979               4.3944       
        188.3732             16.6756               5.2206       
        201.3709             15.6886               6.3526       
        215.2655             14.8088               7.8117       
        230.1188             14.1292               9.5974       
        245.997               13.729               11.679       
        262.9708             13.7031               14.004       
        281.1158             14.1194               16.464       
        300.5128             15.0075               18.944       
        321.2482             16.3534               21.308       
        343.4143             18.0811               23.426       
        367.1099             20.0316               25.189       
        378.476              20.8453               25.854       
        384.269              21.0185               26.15        
        385.8138             20.7765               26.224       
        388.131              21.3155               27.056       
        392.4405             21.9191               27.282       
        393.924              22.0824               27.357       
        398.468              22.5239               27.576       
        404.567              22.9375               27.848       
        406.1934             22.8421               27.916       
        408.633               23.332               28.524       
        414.732              24.1478               28.789       
        419.5189             24.6859               28.983       
        448.4657             27.6204               29.895       
        479.4098             30.4932               30.414       
         500.0               33.7172               30.527       
         502.5               33.9239               30.529       
        505.0125             34.1295               30.528       
       507.53756              34.334               30.526       
       510.07525             34.5374               30.52        
       512.62563             34.7395               30.513       
       515.18875             34.9403               30.503       
        517.7647             35.1398               30.492       
       520.35352             35.3378               30.478       
       522.95529             35.5342               30.461       
       525.57007             35.7291               30.443       
       528.19792             35.9224               30.423       
       530.83891             36.1139                30.4        
        533.4931             36.3036               30.376       
       536.16057             36.4913               30.35        
       538.84137             36.6771               30.321       
       541.53558             36.8607               30.291       
       544.24325             37.0422               30.259       
       546.96447             37.2213               30.225       
       549.69929             37.3979               30.189       
       552.44779              37.572               30.152       
       555.21003             37.7432               30.112       
       557.98608             37.9115               30.071       
       560.77601             38.0766               30.029       
       563.57989             38.2382               29.984       
       566.39779             38.3961               29.938       
       569.22978             38.5499               29.891       
       572.07593             38.6992               29.842       
        574.9363             38.8434               29.791       
       577.81099             38.9818               29.739       
       580.70004             39.1136               29.685       
       583.60354             39.2376               29.63        
       586.52156             39.3521               29.574       
       589.45417              39.455               29.516       
       592.40144             39.5428               29.457       
       595.36345              39.61                29.397       
       598.34026             39.6471               29.335       
       601.33196              39.635               29.272       
       604.33862             39.5249               29.208       
       607.36032             39.0999               29.143       
       608.24487             38.7065               29.124       
       609.75519             38.7907               30.886       
       610.39712             39.1779               30.873       
        613.4491             40.0086               30.808       
       616.51635             40.4763               30.742       
       619.59893             40.8395               30.675       
       622.69693             41.1516               30.608       
       625.81041             41.4328               30.539       
       628.93946             41.6931               30.469       
       632.08416             41.9381               30.398       
       635.24458             42.1712               30.326       
        638.4208             42.3947               30.254       
       641.61291             42.6102               30.18        
       644.82097             42.8189               30.106       
       648.04508             43.0216               30.03        
        651.2853              43.219               29.955       
       654.54173             43.4115               29.878       
       657.81444             43.5996                29.8        
       661.10351             43.7836               29.722       
       664.40903             43.9636               29.643       
       667.73107              44.14                29.564       
       671.06973             44.3127               29.484       
       674.42508              44.482               29.403       
        677.7972             44.6479               29.321       
       681.18619             44.8103               29.239       
       684.59212             44.9692               29.156       
       688.01508             45.1245               29.073       
       691.45515              45.276               28.989       
       694.91243             45.4234               28.905       
       698.38699             45.5663               28.82        
       701.87893              45.704               28.734       
       705.38832             45.8352               28.648       
       708.91526             45.9578               28.562       
       712.45984             46.0675               28.475       
       716.02214             46.1526               28.387       
       719.60225             46.1582               28.299       
       720.29019             46.1213               28.283       
       722.30983             46.2022               28.625       
       723.20026             46.3166               28.604       
       726.81626             46.5926               28.517       
       730.45034             46.7975               28.43        
        734.1026             46.9796               28.343       
       737.77311             47.1495               28.255       
       741.46197             47.3115               28.167       
       745.16928             47.4676               28.079       
       748.89513              47.619               27.99        
       752.63961             47.7665               27.901       
        756.4028             47.9105               27.812       
       760.18482             48.0514               27.723       
       763.98574             48.1893               27.633       
       767.80567             48.3245               27.543       
        771.6447             48.4571               27.454       
       775.50292             48.5871               27.363       
       779.38044             48.7147               27.273       
       783.27734             48.8397               27.183       
       787.19373             48.9622               27.092       
       791.12969             49.0822               27.002       
       795.08534             49.1996               26.911       
       799.06077             49.3142               26.82        
       803.05607              49.426               26.729       
       807.07135             49.5346               26.638       
       811.10671             49.6398               26.547       
       815.16224              49.741               26.456       
       819.23806             49.8375               26.364       
       823.33425             49.9282               26.273       
       827.45092             50.0114               26.182       
       831.58817             50.0836               26.091       
       835.74611             50.1381               25.999       
       839.92484             50.1557               25.908       
       844.12447             50.0257               25.817       
       844.23174             50.0145               25.814       
       846.76824              50.082               26.306       
       848.34509             50.2642               26.272       
       852.58682             50.5341               26.181       
       856.84975             50.7262               26.091       
        861.134               50.891                26.0        
       865.43967             51.0413               25.909       
       869.76687             51.1825               25.819       
        874.1157             51.3172               25.728       
       878.48628             51.4469               25.638       
       882.87871             51.5726               25.548       
        887.2931              51.695               25.458       
       891.72957             51.8146               25.368       
       896.18822             51.9317               25.278       
       900.66916             52.0466               25.188       
        905.1725             52.1595               25.098       
       909.69837             52.2707               25.008       
       914.24686             52.3801               24.919       
       918.81809             52.4881               24.829       
       923.41218             52.5947               24.74        
       928.02924             52.6999               24.651       
       932.66939              52.804               24.562       
       937.33274             52.9069               24.473       
        942.0194             53.0088               24.385       
        946.7295             53.1098               24.296       
       951.46315              53.21                24.208       
       956.22046             53.3094               24.12        
       961.00156             53.4082               24.032       
       965.80657             53.5067               23.944       
        970.6356             53.6049               23.856       
       975.48878             53.7032               23.769       
       980.36623             53.8019               23.681       
       985.26806             53.9017               23.594       
        990.1944             54.0034               23.507       
       995.14537             54.1085               23.421       
       1000.1211             54.2213               23.333       
       1005.1217             54.3845               23.209       
       1010.1473             54.5337               23.086       
        1015.198             54.6718               22.963       
        1020.274             54.8005               22.842       
       1025.3754             54.9214               22.721       
       1030.5023             55.0355                22.6        
       1035.6548             55.1433               22.478       
       1040.8331             55.2457               22.357       
       1046.0372             55.3432               22.237       
       1051.2674             55.4362               22.118       
       1056.5238             55.5253               21.999       
       1061.8064             55.6107               21.881       
       1067.1154             55.6928               21.764       
        1072.451             55.7717               21.648       
       1077.8132             55.8478               21.532       
       1083.2023             55.9211               21.417       
       1088.6183             55.9919               21.302       
       1094.0614             56.0603               21.189       
       1099.5317             56.1265               21.076       
       1105.0294             56.1905               20.963       
       1110.5545             56.2524               20.852       
       1116.1073             56.3125               20.741       
       1121.6878             56.3706               20.63        
       1127.2963              56.427               20.521       
       1132.9328             56.4816               20.412       
       1138.5974             56.5346               20.303       
       1144.2904              56.586               20.196       
       1150.0119             56.6359               20.089       
       1155.7619             56.6843               19.982       
       1161.5407             56.7299               19.877       
       1167.3484             56.7756               19.772       
       1173.1852              56.82                19.667       
       1179.0511              56.863               19.563       
       1184.9464             56.9047               19.46        
       1190.8711             56.9452               19.358       
       1196.8254             56.9846               19.256       
       1202.8096             57.0227               19.155       
       1208.8236             57.0598               19.054       
       1214.8677             57.0957               18.954       
       1220.9421             57.1319               18.854       
       1227.0468             57.1656               18.755       
        1233.182              57.198               18.655       
       1239.3479             57.2294               18.557       
       1245.5447             57.2595               18.459       
       1251.7724             57.2885               18.361       
       1258.0312             57.3165               18.264       
       1264.3214             57.3433               18.168       
        1270.643             57.3691               18.072       
       1276.9962             57.3938               17.977       
       1283.3812             57.4175               17.883       
       1289.7981             57.4402               17.789       
       1296.2471             57.4618               17.695       
       1302.7283             57.4825               17.602       
        1309.242             57.5021               17.51        
       1315.7882             57.5209               17.418       
       1322.3671             57.5386               17.327       
        1328.979             57.5554               17.237       
       1335.6239             57.5712               17.147       
        1342.302             57.5862               17.057       
       1349.0135             57.6002               16.969       
       1355.7586             57.6132               16.88        
       1362.5374             57.6254               16.792       
        1369.35              57.6367               16.705       
       1376.1968              57.647               16.619       
       1383.0778             57.6565               16.532       
       1389.9932             57.6651               16.447       
       1396.9431             57.6729               16.362       
       1403.9278             57.6798               16.277       
       1410.9475             57.6858               16.193       
       1418.0022              57.691               16.11        
       1425.0922             57.6953               16.026       
       1432.2177             57.6988               15.943       
       1439.3788             57.7013               15.861       
       1446.5757             57.7029               15.778       
       1453.8086             57.7035               15.696       
       1461.0776             57.7033               15.615       
        1468.383             57.7021               15.534       
       1475.7249               57.7                15.454       
       1483.1035              57.697               15.374       
        1490.519             57.6931               15.295       
       1497.9716             57.6883               15.216       
       1505.4615             57.6826               15.138       
       1512.9888              57.676               15.061       
       1520.5537             57.6685               14.983       
       1528.1565             57.6602               14.907       
       1535.7973              57.651               14.83        
       1543.4763             57.6409               14.755       
       1551.1937             57.6298               14.673       
       1558.9496             57.6172               14.591       
       1566.7444             57.6032               14.509       
       1574.5781             57.5877               14.428       
        1582.451             57.5708               14.347       
       1590.3633             57.5524               14.267       
       1598.3151             57.5327               14.188       
       1606.3066             57.5116               14.109       
       1614.3382              57.489               14.031       
       1622.4099             57.4651               13.953       
       1630.5219             57.4397               13.873       
       1638.6745             57.4126               13.792       
       1646.8679             57.3837               13.711       
       1655.1022              57.353               13.631       
       1663.3777             57.3205               13.551       
       1671.6946             57.2862               13.472       
       1680.0531              57.25                13.393       
       1688.4534             57.2121               13.315       
       1696.8956             57.1723               13.238       
       1705.3801             57.1307               13.161       
        1713.907             57.0871               13.085       
       1722.4766             57.0417               13.009       
       1731.0889             56.9943               12.934       
       1739.7444              56.945               12.86        
       1748.4431             56.8936               12.786       
       1757.1853             56.8403               12.712       
       1765.9712             56.7848               12.639       
       1774.8011             56.7272               12.567       
       1783.6751             56.6674               12.495       
       1792.5935             56.6054               12.423       
       1801.5565             56.5411               12.352       
       1810.5642             56.4745               12.282       
       1819.6171             56.4054               12.212       
       1828.7151              56.335               12.143       
       1837.8587             56.2609               12.074       
        1847.048             56.1842               12.006       
       1856.2833             56.1047               11.938       
       1865.5647             56.0225               11.87        
       1874.8925             55.9373               11.804       
        1884.267             55.8491               11.737       
       1893.6883             55.7578               11.671       
       1903.1567             55.6633               11.605       
       1912.6725             55.5653               11.54        
       1922.2359             55.4638               11.475       
       1931.8471             55.3587               11.411       
       1941.5063             55.2497               11.347       
       1951.2138             55.1367               11.284       
       1960.9699             55.0195               11.221       
       1970.7747              54.898               11.159       
       1980.6286             54.7718               11.097       
       1990.5318             54.6408               11.035       
       2000.4844             54.5047               10.974       
       2010.4868             54.3632               10.914       
       2020.5393             54.2161               10.853       
        2030.642             54.0629               10.793       
       2040.7952             53.9034               10.734       
       2050.9992             53.7372               10.675       
       2061.2542             53.5638               10.617       
       2071.5604             53.3827               10.558       
       2081.9182             53.1934               10.501       
       2092.3278             52.9954               10.443       
       2102.7895              52.788               10.386       
       2113.3034             52.5704               10.33        
       2123.8699             52.3419               10.274       
       2134.4893             52.1016               10.218       
       2145.1617             51.8483               10.163       
       2155.8875              51.581               10.108       
        2166.667             51.3005               10.053       
       2177.5003             51.0009               9.9988       
       2188.3878             50.6824               9.9449       
       2199.3297             50.3432               9.8915       
       2210.3264             49.9805               9.8384       
        2221.378             49.5916               9.7856       
       2232.4849             49.1729               9.7313       
       2243.6473             48.7199               9.6763       
       2254.8656             48.2272               9.6218       
       2266.1399             47.6881               9.5677       
       2277.4706             47.0938               9.5139       
       2288.8579             46.4329               9.4607       
       2300.3022             45.6899               9.4078       
       2311.8037             44.8428               9.3542       
       2323.3628             43.8592               9.2999       
       2334.9796             42.6879               9.2461       
       2346.6545             41.2408               9.1928       
       2358.3878             39.3445               9.1399       
       2370.1797             36.5691               9.0874       
       2382.0306             31.1333               9.0354       
        2388.655             17.8561               9.0066       
       2389.9452              17.56                26.11        
       2393.9407             28.2573               26.045       
       2405.9104             34.9344               25.852       
        2417.94              37.5104               25.661       
       2430.0297             38.8982               25.471       
       2442.1798             39.5964               25.282       
       2454.3907             39.6905               25.094       
       2466.6627             38.9611               24.907       
        2478.996              35.959               24.722       
       2484.3943             28.5815               24.642       
       2485.8058             28.5013               35.959       
        2491.391             36.8012               35.836       
       2503.8479             41.5359               35.563       
       2516.3672             44.0836               35.293       
        2528.949             45.9357               35.024       
       2541.5938             47.4244               34.758       
       2554.3017             48.6821               34.494       
       2567.0732             49.7767               34.233       
       2579.9086             50.7481               33.973       
       2592.8082             51.6222               33.715       
       2605.7722             52.4165               33.46        
       2618.8011             53.1438               33.206       
       2631.8951             53.8137               32.955       
       2645.0545             54.4335               32.706       
       2658.2798              55.009               32.459       
       2671.5712             55.5447               32.213       
       2684.9291             56.0442               31.97        
       2698.3537             56.5106               31.729       
       2711.8455             56.9461               31.489       
       2725.4047             57.3529               31.252       
       2739.0317             57.7321               31.016       
       2752.7269             58.0851               30.783       
       2766.4905             58.4124               30.551       
        2780.323             58.7144               30.321       
       2794.2246             58.9909               30.093       
       2808.1957             59.2412               29.867       
       2822.2367             59.4642               29.643       
       2836.3479             59.6574               29.42        
       2850.5296             59.8175                29.2        
       2864.7823             59.9389               28.981       
       2879.1062             60.0127               28.763       
       2893.5017             60.0239               28.548       
       2907.9692             59.9446               28.333       
       2922.5091              59.716               28.12        
       2937.1216             59.1734               27.909       
       2951.8072             57.3502                27.7        
       2953.6434             56.6537               27.674       
       2959.5566             56.7161               32.38        
       2966.5662              58.725               32.253       
       2981.3991             60.4119               31.988       
       2996.3061             61.4038               31.725       
       3011.2876             62.2697               31.455       
        3026.344             62.9126               31.187       
       3041.4758             63.4445               30.924       
       3056.6831             63.9078               30.665       
       3071.9666             64.3214               30.409       
       3087.3264             64.6956               30.156       
        3102.763             65.0359               29.907       
       3118.2768              65.35                29.67        
       3133.8682              65.645               29.436       
       3149.5376              65.922               29.204       
       3165.2853             66.1822               28.975       
       3181.1117              66.427               28.748       
       3197.0172             66.6571               28.524       
       3213.0023             66.8732               28.302       
       3229.0673             67.0758               28.082       
       3245.2127             67.2644               27.861       
       3261.4387             67.4384               27.643       
       3277.7459             67.5971               27.426       
       3294.1347             67.7395               27.211       
       3310.6053             67.8635               26.998       
       3327.1584              67.966               26.787       
       3343.7941              68.041               26.578       
       3360.5131             68.0778               26.371       
       3377.3157             68.0529               26.165       
       3394.2023             67.8992               25.961       
        3410.713             67.2314               25.764       
       3411.1733             67.1804               25.758       
       3420.6869             67.3136               27.454       
       3428.2291             67.9227               27.355       
       3445.3703             68.5836               27.133       
       3462.5971             68.9994               26.913       
       3479.9101             69.3225               26.694       
       3497.3097             69.5934               26.478       
       3514.7962             69.8287               26.263       
       3532.3702             70.0367               26.05        
       3550.0321             70.2218               25.839       
       3567.7822             70.3858               25.629       
       3585.6211             70.5286               25.423       
       3603.5492             70.6528               25.227       
        3621.567              70.759               25.033       
       3639.6748             70.8416               24.842       
       3657.8732             70.8892               24.653       
       3676.1626             70.8727               24.465       
       3694.5434             70.6565               24.28        
       3696.2102             70.6044               24.263       
       3711.9896             70.7221               25.181       
       3713.0161             70.7719               25.17        
       3731.5812             71.2981               24.987       
       3750.2391             71.6117               24.806       
       3768.9903             71.8606               24.626       
       3787.8352             72.0763               24.448       
       3806.7744             72.2709               24.272       
       3825.8083             72.4508               24.098       
       3844.9373             72.6195               23.925       
        3864.162             72.7784               23.751       
       3883.4828             72.9288               23.578       
       3902.9002              73.072               23.406       
       3922.4147             73.2088               23.237       
       3942.0268              73.34                23.069       
       3961.7369             73.4662               22.903       
       3981.5456             73.5878               22.738       
       4001.4533             73.7053               22.575       
       4021.4606             73.8189               22.414       
       4041.5679             73.9289               22.254       
       4061.7757             74.0356               22.095       
       4082.0846             74.1391               21.938       
        4102.495             74.2398               21.783       
       4123.0075             74.3377               21.629       
       4143.6226              74.433               21.476       
       4164.3407             74.5259               21.325       
       4185.1624             74.6164               21.175       
       4206.0882             74.7047               21.027       
       4227.1186              74.791               20.879       
       4248.2542             74.8753               20.734       
       4269.4955             74.9577               20.589       
        4290.843             75.0383               20.445       
       4312.2972             75.1173               20.303       
       4333.8587             75.1947               20.162       
        4355.528             75.2707               20.023       
       4377.3056             75.3453               19.884       
       4399.1921             75.4186               19.747       
       4421.1881              75.491               19.61        
        4443.294             75.5624               19.475       
       4465.5105              75.632               19.337       
       4487.8381             75.6998                19.2        
       4510.2772             75.7659               19.065       
       4532.8286             75.8303               18.93        
       4555.4928             75.8933               18.797       
       4578.2702             75.9549               18.664       
       4601.1616              76.015               18.533       
       4624.1674              76.074               18.402       
       4647.2882             76.1317               18.273       
       4670.5247             76.1882               18.144       
       4693.8773             76.2437               18.017       
       4717.3467             76.2981               17.89        
       4740.9334             76.3515               17.764       
       4764.6381             76.4041               17.64        
       4788.4613             76.6394               17.513       
       4812.4036             76.6904               17.383       
       4836.4656             76.7396               17.254       
       4860.6479             76.7871               17.125       
       4884.9512             76.8331               16.998       
       4909.3759             76.8776               16.871       
       4933.9228             76.9207               16.746       
       4958.5924             76.9625               16.622       
       4983.3854             77.1287               16.496       
       5008.3023              77.168               16.369       
       5033.3438             77.2057               16.244       
       5058.5105             77.2419               16.119       
       5083.8031             77.2766               15.996       
       5109.2221             77.3099               15.874       
       5134.7682             77.3419               15.752       
       5160.4421             77.3727               15.632       
       5186.2443             77.4022               15.513       
       5212.1755             77.4306               15.395       
       5238.2364             77.4578               15.278       
       5264.4276              77.484               15.162       
       5290.7497             77.5092               15.047       
       5317.2034             77.5333               14.933       
       5343.7895             77.5565               14.819       
       5370.5084             77.5788               14.707       
       5397.3609             77.6001               14.596       
       5424.3477             77.6206               14.486       
       5451.4695             77.6403               14.377       
       5478.7268             77.6591               14.268       
       5506.1205             77.6771               14.161       
       5533.6511             77.6944               14.055       
       5561.3193             77.7109               13.949       
       5589.1259             77.7268               13.845       
       5617.0716             77.7419               13.741       
       5645.1569             77.7564               13.638       
       5673.3827             77.7702               13.536       
       5701.7496             77.7834               13.435       
       5730.2584              77.796               13.335       
       5758.9096              77.808               13.236       
       5787.7042             77.8194               13.138       
       5816.6427             77.8304               13.04        
       5845.7259             77.8408               12.943       
       5874.9546             77.8507               12.848       
       5904.3293             77.8602               12.753       
        5933.851             77.9663               12.656       
       5963.5202             77.9752               12.559       
       5993.3378             77.9834               12.463       
       6023.3045             77.9907               12.368       
        6053.421             77.9974               12.274       
       6083.6882             78.0033               12.18        
       6114.1066             78.0086               12.088       
       6144.6771             78.0132               11.996       
       6175.4005             78.0172               11.905       
       6206.2775             78.0207               11.815       
       6237.3089             78.0235               11.725       
       6268.4954             78.0258               11.637       
       6299.8379             78.0276               11.549       
       6331.3371             78.0289               11.462       
       6362.9938             78.0297               11.375       
       6394.8088              78.03                11.29        
       6426.7828             78.0298               11.205       
       6458.9167             78.0292               11.121       
       6491.2113             78.0281               11.038       
       6523.6674             78.0267               10.955       
       6556.2857             78.0248               10.873       
       6589.0671             78.0225               10.792       
       6622.0125             78.0198               10.712       
       6655.1225             78.0168               10.632       
       6688.3981             78.0134               10.553       
       6721.8401             78.0096               10.475       
       6755.4493             78.0055               10.397       
       6789.2266             78.0011               10.32        
       6823.1727             77.9964               10.244       
       6857.2886             78.0312               10.168       
        6891.575             78.0261               10.092       
       6926.0329             78.0205               10.016       
       6960.6631             78.0145               9.9415       
       6995.4664             78.0082               9.8674       
       7030.4437             78.0015               9.7939       
       7065.5959             77.9944               9.7211       
       7100.9239              77.987               9.6489       
       7136.4285             77.9793               9.5773       
       7172.1107             77.9712               9.5063       
       7207.9712             77.9628               9.4359       
       7244.0111             77.9541               9.3662       
       7280.2311             77.9451               9.2965       
       7316.6323             77.9357               9.2272       
       7353.2155             77.9261               9.1585       
       7389.9815             77.9161               9.0904       
       7426.9314             77.9228               9.0227       
       7464.0661             77.9123               8.9553       
       7501.3864             77.9015               8.8885       
       7538.8934             77.8904               8.8223       
       7576.5878              77.879               8.7566       
       7614.4708             77.8672               8.6915       
       7652.5431             77.8551               8.6268       
       7690.8058             77.8427               8.5623       
       7729.2599              77.83                8.4984       
       7767.9062             77.8169               8.4351       
       7806.7457             77.8036               8.3723       
       7845.7794             77.7899               8.3101       
       7885.0083              77.776               8.2484       
       7924.4334             77.7618               8.1872       
       7964.0555             77.7473               8.1266       
       8003.8758             77.7325               8.0665       
       8043.8952             77.7174               8.0069       
       8084.1147             77.7021               7.9478       
       8124.5352             77.6865               7.8892       
       8165.1579             77.6706               7.8312       
       8205.9837             77.6545               7.7736       
       8247.0136             77.6381               7.7165       
       8288.2487             77.6215               7.6599       
       8329.6899             77.6047               7.6038       
       8371.3384             77.5877               7.5482       
       8413.1951             77.5704               7.493        
        8455.261              77.553               7.4384       
       8497.5373             77.5354               7.3841       
        8540.025             77.5176               7.3304       
        9030.794             77.4289               6.7354       
        9653.919             77.0484               6.027        
        10320.04             76.5139               5.4021       
        11032.12             75.7526               4.8327       
        11793.34             74.4692               4.3245       
        12404.35             72.0647               3.9797       
        12594.21             69.3694               3.8824       
        12607.08             68.9254               3.8759       
        12644.84             66.2102               3.8571       
        12720.79             69.3552               9.9955       
        12910.65             72.1315               9.7442       
        13476.97             74.2423               9.0459       
        14406.88             74.2598               8.0525       
        14624.41             73.0572               7.845        
        14683.2              71.4892               7.7903       
        14771.39             73.1078               10.832       
        14991.86             74.5137               10.563       
        15039.77             74.6421               10.506       
        15269.97             74.6766               10.239       
        15331.35             74.0146               10.169       
        15400.95             74.8024               11.689       
        15423.43             75.0298               11.663       
        15653.63             76.1906                11.4        
        16463.62             77.9302               10.543       
        17599.61             79.1574               9.4813       
        18813.98             79.9149               8.5258       
        20112.15             80.4206               7.6618       
        21499.88              80.759               6.8829       
        22983.38             80.9858               6.1862       
        24569.23             81.1377               5.5631       
        26264.5              81.3026               5.0021       
        28076.76             81.3663               4.4664       
        30014.05             81.4085               3.9805       
        32085.02             81.4083               3.5398       
        34298.89             81.3527               3.1474       
        36665.51             81.2794               2.8006       
        39195.43             81.1946               2.494        
        41899.92              81.102               2.2227       
        44791.01              81.004               1.9825       
        47881.59             80.9015               1.7695       
        51185.42             80.7947               1.5807       
        54717.21             80.6827               1.4129       
        58492.7              80.5618               1.261        
        62528.7              80.4267               1.1264       
        66843.18             80.2686               1.0051       
        71455.36             80.0661              0.89427       
        76385.78              79.769              0.79602       
        81656.4              79.1784              0.70702       
        83819.8              78.5868              0.67349       
        85102.75              77.537              0.65478       
        85444.87             76.2807              0.64993       
        85958.06             77.5904               3.1153       
        87290.69             78.7601               3.0417       
        93313.74             80.0246               2.7389       
        99752.39             80.5126               2.4627       
        106635.3             80.7956               2.2109       
        113993.1             80.9776               1.9839       
        121858.7             81.1005               1.7796       
        130266.9             81.1831               1.5932       
        139255.3              81.237               1.4262       
        148864.0             81.2709               1.2766       
        159135.6             81.2905               1.1428       
        170115.9             81.2998               1.0231       
        181853.9             81.3018              0.91573       
        194401.8              81.298              0.81924       
        207815.6              81.29                0.733        
        222154.8             81.2792              0.65591       
        237483.5             81.2665              0.58698       
        253869.9             81.2527              0.52535       
        271386.9             81.2382              0.47023       
        290112.6             81.2234              0.42093       
        310130.4             81.2087              0.37684       
        331529.4             81.1943              0.33739       
        354404.9             81.1803               0.3021       
        378858.8             81.1668              0.27052       
        405000.1              81.154              0.24226       
        432945.1             81.1418              0.21697       
