# Tm
# Form Factors from Chantler Tables
# DOI: https://dx.doi.org/10.18434/T4HS32
# automatically retrived 2019-02-28 using URL https://physics.nist.gov/cgi-bin/ffast/ffast.pl

# For f_rel the second term, which is 3/5th of the Cromer-Liberman value, is used as suggested by Chantler.
# Real and imaginary part of the formfactors are: f'(E)=f1(E)+f_rel+f_NT and f''(E)=f2(E)
# see also original publication:  https://doi.org/10.1063/1.555974

# Z = 69
# f_rel = -0.7224 e/atom  (Relativistic correction estimate)
# f_NT = -0.01546 e/atom (Nuclear Thomson correction)


#        E (eV)            f1 (e/atom)          f2 (e/atom)     
         5.194               10.5318                0.0         
         5.2735              10.4639                0.0         
         5.2947              10.3894                0.0         
         5.3265              10.4604              0.14292       
         5.406               10.5184              0.14344       
         10.69               10.2397              0.25905       
        11.42761              10.162              0.28489       
        12.21612             10.0721              0.31469       
        13.05903              9.9679               0.349        
        13.9601              9.84691              0.38849       
        14.92335             9.70585               0.4339       
        15.95306             10.2087              0.48611       
        17.05382             10.0135              0.54609       
        18.23053             9.78076              0.61496       
        19.48844             9.49946               0.694        
        20.83314             9.15334               0.7846       
        22.27063             8.71683              0.88828       
        23.8073              8.14646               1.0065       
        25.45001              7.361                1.1409       
        27.20606             6.18552               1.2935       
        29.08327             4.13989               1.4661       
        31.09002             -1.07371              1.6608       
         31.654              -4.94686              1.7174       
        32.1385              -14.4758              1.7665       
        32.2677              -26.4192              1.7797       
        32.4615              -13.2016              25.575       
         32.946              -1.50865              24.276       
        33.23523             1.71508               23.547       
        35.52846             12.0535               18.798       
        37.97993             15.6441               15.152       
        40.60054             17.0816               12.365       
        43.40198             17.5084               10.336       
        46.39671             17.4405               8.9323       
        49.59809             17.1456               8.0236       
         52.136              16.8602               7.6007       
         52.934              16.7592               7.5087       
        53.02035             16.7457               7.4997       
        53.1468              16.7187               7.487        
         53.466              16.7026               7.4917       
         54.264              16.6351               7.4271       
        56.67876             16.4141               7.3118       
        60.58959             16.1064               7.3198       
        64.77028             15.8667               7.5089       
        69.23942             15.7111               7.8428       
        74.01695             15.6505               8.2953       
        79.12411             15.6952               8.8472       
        84.58368             15.8582               9.4845       
        90.41995             16.1588               10.197       
        96.65893             16.6281               10.976       
         100.0                19.091               11.363       
         100.5               19.1424               11.39        
        101.0025             19.1938               11.416       
       101.50751             19.2449               11.443       
       102.01505              19.296               11.469       
       102.52513              19.347               11.495       
       103.03775             19.3979               11.521       
       103.55294             19.4486               11.547       
        104.0707             19.4993               11.573       
       104.59106              19.55                11.598       
       105.11401             19.6005               11.624       
       105.63958              19.651               11.649       
       106.16778             19.7015               11.674       
       106.69862             19.7519               11.699       
       107.23211             19.8022               11.723       
       107.76827             19.8525               11.747       
       108.30712             19.9028               11.772       
       108.84865              19.953               11.796       
       109.39289             20.0032               11.819       
       109.93986             20.0533               11.843       
       110.48956             20.1034               11.866       
       111.04201             20.1535               11.89        
       111.59722             20.2035               11.912       
        112.1552             20.2535               11.935       
       112.71598             20.3035               11.958       
       113.27956             20.3534               11.98        
       113.84596             20.4033               12.002       
       114.41519             20.4531               12.024       
       114.98726             20.5029               12.045       
        115.5622             20.5526               12.067       
       116.14001             20.6023               12.088       
       116.72071             20.6519               12.109       
       117.30431             20.7014               12.129       
       117.89083             20.7509               12.149       
       118.48029             20.8003               12.17        
       119.07269             20.8496               12.189       
       119.66805             20.8989               12.209       
       120.26639              20.948               12.228       
       120.86772             20.9971               12.247       
       121.47206              21.046               12.266       
       122.07942             21.0948               12.285       
       122.68982             21.1436               12.303       
       123.30327             21.1921               12.321       
       123.91979             21.2406               12.338       
       124.53939             21.2889               12.356       
       125.16208              21.337               12.373       
       125.78789              21.385               12.39        
       126.41683             21.4328               12.406       
       127.04892             21.4804               12.423       
       127.68416             21.5278               12.439       
       128.32258              21.575               12.454       
       128.96419             21.6219               12.47        
       129.60902             21.6686               12.485       
       130.25706             21.7151                12.5        
       130.90835             21.7612               12.514       
       131.56289             21.8071               12.528       
        132.2207             21.8527               12.542       
       132.88181              21.898               12.556       
       133.54621             21.9429               12.569       
       134.21395             21.9874               12.582       
       134.88502             22.0316               12.595       
       135.55944             22.0753               12.607       
       136.23724             22.1187               12.619       
       136.91842             22.1615               12.631       
       137.60302             22.2039               12.643       
       138.29103             22.2458               12.654       
       138.98249             22.2871               12.665       
        139.6774             22.3279               12.675       
       140.37579              22.368               12.685       
       141.07766             22.4075               12.695       
       141.78305             22.4464               12.705       
       142.49197             22.4845               12.714       
       143.20443             22.5218               12.723       
       143.92045             22.5583               12.731       
       144.64005              22.594               12.74        
       145.36325             22.6288               12.748       
       146.09007             22.6625               12.755       
       146.82052             22.6953               12.762       
       147.55462             22.7269               12.769       
       148.29239             22.7573               12.776       
       149.03386             22.7865               12.782       
       149.77903             22.8143               12.788       
       150.52792             22.8407               12.794       
       151.28056             22.8655               12.799       
       152.03696             22.8887               12.804       
       152.79715             22.9101               12.809       
       153.56113             22.9295               12.813       
       154.32894             22.9469               12.817       
       155.10058              22.962               12.821       
       155.87609             22.9747               12.824       
       156.65547             22.9847               12.827       
       157.43875             22.9918               12.829       
       158.22594             22.9957               12.832       
       159.01707             22.9962               12.834       
       159.81215             22.9944               12.835       
       160.61121             22.9868               12.836       
       161.41427             22.9746               12.837       
       162.22134             22.9572               12.838       
       163.03245              22.934               12.838       
       163.84761             22.9042               12.838       
       164.66685             22.8671               12.838       
       165.49018             22.8215               12.837       
       166.31763             22.7663               12.836       
       167.14922               22.7                12.834       
       167.98497             22.6207               12.832       
       168.82489             22.5262               12.83        
       169.66902             22.4134               12.828       
       170.51736             22.2785               12.825       
       171.36995             22.1165               12.822       
        172.2268             21.9205               12.819       
       173.08793             21.6808               12.815       
       173.95337             21.3833               12.811       
       174.82314              21.006               12.806       
       175.69726              20.513               12.801       
       176.57574             19.8386               12.796       
       177.45862              18.845               12.791       
       178.34591             17.1548               12.785       
       179.23764             12.7504               12.779       
       179.46997             8.81247               12.777       
       179.49044             8.13869               12.777       
       179.70956             8.41529               25.45        
       179.73003             9.13343               25.435       
       180.13383             15.2124               25.131       
        181.0345             19.7264               24.482       
       181.93967             22.0462               23.866       
       182.84937             23.6141               23.281       
       183.76362             24.7851               22.726       
       184.68244             25.7057               22.199       
       185.60585             26.4522               21.699       
       186.53388              27.07                21.224       
       187.46655             27.5885               20.772       
       188.40388             28.0278               20.344       
        189.3459             28.4029               19.937       
       190.29263             28.7246               19.55        
       191.24409             29.0014               19.183       
       192.20031             29.2401               18.833       
       193.16131             29.4459               18.501       
       194.12712             29.6232               18.186       
       195.09776             29.7754               17.886       
       196.07325             29.9052                17.6        
       197.05361             30.0149               17.329       
       198.03888             30.1058               17.071       
       199.02907             30.1799               16.83        
       200.02422             30.2412               16.607       
       201.02434             30.2925                16.4        
       202.02946             30.3359               16.207       
       203.03961             30.3731               16.027       
       204.05481             30.4052               15.858       
       205.07508             30.4334               15.701       
       206.10046             30.4584               15.554       
       207.13096             30.4808               15.415       
       208.16661             30.5012               15.285       
       209.20745              30.52                15.163       
       210.25348             30.5376               15.048       
       211.30475             30.5542               14.939       
       212.36128             30.5702               14.836       
       213.42308             30.5857               14.738       
        214.4902             30.6009               14.646       
       215.56265             30.6158               14.558       
       216.64046             30.6307               14.475       
       217.72366             30.6456               14.395       
       218.81228             30.6606               14.319       
       219.90634             30.6758               14.247       
       221.00588             30.6911               14.177       
        222.1109             30.7066               14.111       
       223.22146             30.7224               14.047       
       224.33757             30.7384               13.986       
       225.45925             30.7547               13.927       
       226.58655             30.7713               13.87        
       227.71948             30.7881               13.816       
       228.85808             30.8053               13.763       
       230.00237             30.8227               13.712       
       231.15238             30.8403               13.663       
       232.30814             30.8582               13.615       
       233.46969             30.8763               13.569       
       234.63703             30.8947               13.524       
       235.81022             30.9133               13.481       
       236.98927              30.932               13.438       
       238.17422              30.951               13.397       
       239.36509             30.9701               13.357       
       240.56191             30.9894               13.318       
       241.76472             31.0088               13.28        
       242.97355             31.0283               13.242       
       244.18841             31.0479               13.206       
       245.40936             31.0676               13.17        
        246.6364             31.0873               13.135       
       247.86959             31.1071               13.101       
       249.10893             31.1269               13.068       
       250.35448             31.1468               13.035       
       251.60625             31.1666               13.003       
       252.86428             31.1864               12.971       
        254.1286             31.2062               12.94        
       255.39925             31.2259               12.909       
       256.67624             31.2455               12.879       
       257.95962              31.265               12.85        
       259.24942             31.2845               12.821       
       260.54567             31.3038               12.792       
        261.8484             31.3229               12.764       
       263.15764              31.342               12.737       
       264.47343             31.3608               12.709       
       265.79579             31.3795               12.683       
       267.12477             31.3979               12.656       
        268.4604             31.4162               12.63        
        269.8027             31.4342               12.604       
       271.15171             31.4519               12.579       
       272.50747             31.4694               12.554       
       273.87001             31.4866               12.529       
       275.23936             31.5035               12.505       
       276.61556              31.52                12.481       
       277.99863             31.5363               12.457       
       279.38863             31.5521               12.434       
       280.78557             31.5676               12.411       
        282.1895             31.5827               12.388       
       283.60044             31.5973               12.366       
       285.01845             31.6115               12.344       
       286.44354             31.6252               12.322       
       287.87576             31.6384               12.301       
       289.31514             31.6511               12.279       
       290.76171             31.6632               12.258       
       292.21552             31.6747               12.238       
        293.6766             31.6856               12.217       
       295.14498             31.6958               12.197       
       296.62071             31.7053               12.178       
       298.10381             31.7141               12.158       
       299.59433              31.722               12.139       
        301.0923              31.729               12.12        
       302.59776             31.7351               12.101       
       304.11075             31.7401               12.083       
        305.6313              31.744               12.065       
       307.15946             31.7468               12.047       
       308.69526             31.7481               12.029       
       310.23873              31.748               12.012       
       311.78993             31.7462               11.995       
       313.34888             31.7426               11.979       
       314.91562             31.7369               11.962       
        316.4902             31.7288               11.946       
       318.07265             31.7179               11.93        
       319.66301             31.7038               11.915       
       321.26133             31.6858                11.9        
       322.86764             31.6631               11.885       
       324.48197             31.6346               11.87        
       326.10438             31.5986               11.856       
       327.73491             31.5527               11.842       
       329.37358             31.4927               11.828       
       331.02045             31.4116               11.814       
       332.67555             31.2942               11.801       
       334.33893             31.0997               11.788       
       336.01062             30.6005               11.775       
       336.21965             30.4348               11.774       
       336.98036             30.4405               12.97        
       337.69068              30.849               12.967       
       339.37913             31.2216               12.959       
       341.07602             31.4195               12.951       
        342.7814              31.559               12.944       
       344.49531             31.6687               12.937       
       346.21779             31.7604               12.93        
       347.94888             31.8399               12.924       
       349.68862             31.9106               12.918       
       351.43706             31.9746               12.912       
       353.19425             32.0333               12.907       
       354.96022             32.0876               12.902       
       356.73502             32.1383               12.897       
        358.5187             32.1859               12.892       
       360.31129             32.2307               12.888       
       362.11285              32.273               12.884       
       363.92341             32.3129               12.88        
       365.74303             32.3506               12.877       
       367.57174             32.3861               12.874       
        369.4096             32.4194               12.871       
       371.25665             32.4503               12.868       
       373.11293             32.4785               12.866       
        374.9785             32.5035               12.864       
       376.85339             32.5246               12.862       
       378.73766             32.5402               12.86        
       380.63135             32.5474               12.859       
        382.5345             32.5391               12.858       
       384.44718              32.489               12.857       
       385.40604             32.3946               12.856       
       386.36941             32.4074               13.185       
       386.39394             32.4131               13.185       
       388.30126             32.6148               13.186       
       390.24276             32.7137               13.187       
       392.19398             32.7893               13.189       
       394.15495             32.8543               13.191       
       396.12572             32.9132               13.193       
       398.10635             32.9681               13.195       
       400.09688             33.0201               13.197       
       402.09737              33.07                 13.2        
       404.10785             33.1182               13.202       
       406.12839             33.1649               13.205       
       408.15904             33.2106               13.208       
       410.19983             33.2552               13.211       
       412.25083              33.299               13.215       
       414.31208             33.3421               13.218       
       416.38364             33.3845               13.222       
       418.46556             33.4262               13.225       
       420.55789             33.4674               13.229       
       422.66068              33.508               13.233       
       424.77398             33.5481               13.237       
       426.89785             33.5877               13.241       
       429.03234             33.6267               13.245       
        431.1775             33.6652               13.249       
       433.33339             33.7031               13.254       
       435.50006             33.7404               13.258       
       437.67756              33.777               13.262       
       439.86595             33.8129               13.267       
       442.06528              33.848               13.271       
        444.2756             33.8822               13.276       
       446.49698             33.9152               13.28        
       448.72947             33.9469               13.285       
       450.97311              33.977               13.289       
       453.22798             34.0052               13.294       
       455.49412             34.0308               13.298       
       457.77159             34.0532               13.303       
       460.06045             34.0709               13.307       
       462.36075             34.0821               13.312       
       464.67255             34.0828               13.316       
       466.99592             34.0642               13.32        
        469.3309             33.9988               13.324       
       470.99246             33.8336               13.327       
       471.67755             33.2805               13.329       
       472.40756             33.8619               13.846       
       474.03594             34.0908               13.85        
       476.40612             34.2537               13.855       
       478.78815             34.3692               13.86        
       481.18209             34.4655               13.865       
        483.588              34.5515               13.869       
       486.00594             34.6309               13.874       
       488.43597             34.7059               13.878       
       490.87815             34.7778               13.883       
       493.33254             34.8473               13.887       
        495.7992             34.9149               13.891       
        498.2782             34.9811               13.895       
       500.76959             35.0462               13.898       
       503.27344             35.1103               13.902       
        505.7898             35.1736               13.905       
       508.31875             35.2363               13.908       
       510.86035             35.2985               13.911       
       513.41465             35.3602               13.913       
       515.98172             35.4215               13.916       
       518.56163             35.4825               13.918       
       521.15444             35.5433               13.92        
       523.76021             35.6038               13.921       
       526.37901             35.6641               13.923       
       529.01091             35.7242               13.924       
       531.65596             35.7842               13.924       
       534.31424             35.8441               13.925       
       536.98581             35.9038               13.925       
       539.67074               36.0                13.924       
        542.3691             36.0596               13.924       
       545.08094             36.1191               13.923       
       547.80635             36.1785               13.922       
       550.54538             36.2378               13.92        
        553.2981              36.297               13.918       
        556.0646             36.3562               13.916       
       558.84492             36.4152               13.913       
       561.63914             36.4742               13.91        
       564.44734             36.5332               13.907       
       567.26958              36.592               13.903       
       570.10592             36.6508               13.899       
       572.95645             36.7095               13.895       
       575.82123             36.7681               13.89        
       578.70034             36.8266               13.885       
       581.59384              36.885               13.879       
       584.50181             36.9433               13.873       
       587.42432             37.0015               13.867       
       590.36144             37.0597               13.86        
       593.31325             37.1177               13.852       
       596.27982             37.1756               13.845       
       599.26122             37.2334               13.837       
       602.25752              37.291               13.828       
       605.26881             37.3485               13.82        
       608.29515             37.4059               13.81        
       611.33663             37.4632                13.8        
       614.39331             37.5202               13.79        
       617.46528             37.5772               13.78        
        620.5526             37.6339               13.769       
       623.65537             37.6905               13.757       
       626.77364             37.7469               13.745       
       629.90751             37.8031               13.733       
       633.05705             37.8591               13.72        
       636.22234             37.9149               13.707       
       639.40345             37.9704               13.694       
       642.60046             38.0258               13.68        
       645.81347             38.0809               13.666       
       649.04253             38.1358               13.651       
       652.28775             38.1905               13.636       
       655.54919             38.2449               13.62        
       658.82693              38.299               13.604       
       662.12107             38.3529               13.588       
       665.43167             38.4065               13.571       
       668.75883             38.4599               13.554       
       672.10262             38.5129               13.536       
       675.46314             38.5656               13.518       
       678.84045             38.6181               13.499       
       682.23466             38.6702               13.481       
       685.64583              38.722               13.461       
       689.07406             38.7735               13.442       
       692.51943             38.8247               13.422       
       695.98202             38.8755               13.401       
       699.46194              38.926               13.38        
       702.95924             38.9761               13.359       
       706.47404             39.0259               13.338       
       710.00641             39.0753               13.316       
       713.55644             39.1244               13.293       
       717.12423             39.1731               13.271       
       720.70985             39.2214               13.248       
        724.3134             39.2693               13.224       
       727.93496             39.3168                13.2        
       731.57464             39.3638               13.176       
       735.23251             39.4105               13.151       
       738.90867             39.4566               13.126       
       742.60322             39.5024                13.1        
       746.31623             39.5476               13.074       
       750.04781             39.5924               13.047       
       753.79805             39.6366               13.021       
       757.56704             39.6804               12.993       
       761.35488             39.7236               12.966       
       765.16165             39.7663               12.938       
       768.98746             39.8085               12.909       
        772.8324             39.8502               12.881       
       776.69656             39.8913               12.852       
       780.58004             39.9319               12.822       
       784.48294             39.9719               12.793       
       788.40536             40.0114               12.763       
       792.34738             40.0503               12.733       
       796.30912             40.0886               12.702       
       800.29067             40.1264               12.671       
       804.29212             40.1635               12.64        
       808.31358               40.2                12.608       
       812.35515             40.2359               12.576       
       816.41693             40.2711               12.544       
       820.49901             40.3058               12.511       
        824.6015             40.3397               12.479       
       828.72451             40.3731               12.446       
       832.86813             40.4058               12.413       
       837.03248             40.4379               12.38        
       841.21764             40.4694               12.346       
       845.42373             40.5002               12.312       
       849.65084             40.5304               12.279       
        853.8991              40.56                12.245       
       858.16859              40.589               12.211       
       862.45944             40.6174               12.176       
       866.77173             40.6451               12.142       
       871.10559             40.6722               12.107       
       875.46112             40.6988               12.073       
       879.83843             40.7247               12.038       
       884.23762             40.7501               12.003       
       888.65881             40.7749               11.968       
        893.1021             40.7991               11.933       
       897.56761             40.8227               11.897       
       902.05545             40.8459               11.862       
       906.56573             40.8685               11.827       
       911.09856             40.8906               11.791       
       915.65405             40.9122               11.756       
       920.23232             40.9334               11.72        
       924.83348             40.9541               11.685       
       929.45765             40.9744               11.649       
       934.10494             40.9943               11.613       
       938.77546             41.0139               11.578       
       943.46934             41.0331               11.542       
       948.18668             41.0521               11.506       
       952.92762             41.0708               11.47        
       957.69226             41.0894               11.434       
       962.48072             41.1079               11.399       
       967.29312             41.1263               11.363       
       972.12959             41.1448               11.327       
       976.99023             41.1634               11.291       
       981.87519             41.1822               11.256       
       986.78456             41.2014               11.22        
       991.71848              41.221               11.184       
       996.67708             41.2412               11.149       
       1001.6605             41.2515               11.102       
       1006.6688             41.2383               11.034       
       1011.7021              41.223               10.966       
       1016.7606             41.2037               10.898       
       1021.8444             41.1816               10.831       
       1026.9536             41.1566               10.765       
       1032.0884             41.1288               10.699       
       1037.2489             41.0983               10.634       
       1042.4351             41.0651               10.569       
       1047.6473             41.0293               10.505       
       1052.8855             40.9908               10.441       
       1058.1499             40.9497               10.378       
       1063.4407             40.9059               10.315       
       1068.7579             40.8595               10.253       
       1074.1017             40.8104               10.191       
       1079.4722             40.7587               10.129       
       1084.8695             40.7042               10.068       
       1090.2939              40.647               10.008       
       1095.7454             40.5871               9.9479       
       1101.2241             40.5243               9.8884       
       1106.7302             40.4586               9.8293       
       1112.2639             40.3901               9.7706       
       1117.8252             40.3185               9.7124       
       1123.4143             40.2439               9.6547       
       1129.0314             40.1661               9.5973       
       1134.6765             40.0851               9.5404       
       1140.3499             40.0008               9.484        
       1146.0517             39.9131               9.4279       
       1151.7819             39.8219               9.3723       
       1157.5408             39.7271               9.3171       
       1163.3285             39.6269               9.2623       
       1169.1452             39.5244               9.208        
       1174.9909             39.4179               9.154        
       1180.8659             39.3073               9.1004       
       1186.7702             39.1922               9.0473       
        1192.704             39.0726               8.9945       
       1198.6676             38.9483               8.9421       
       1204.6609              38.819               8.8901       
       1210.6842             38.6846               8.8385       
       1216.7376             38.5447               8.7873       
       1222.8213             38.3992               8.7365       
       1228.9354             38.2476               8.686        
       1235.0801             38.0898               8.6359       
       1241.2555             37.9253               8.5862       
       1247.4618             37.7537               8.5369       
       1253.6991             37.5747               8.4879       
       1259.9676             37.3878               8.4393       
       1266.2674             37.1925               8.391        
       1272.5988             36.9883               8.3431       
       1278.9618             36.7744               8.2955       
       1285.3566             36.5503               8.2483       
       1291.7833             36.3152               8.2015       
       1298.2423             36.0682               8.155        
       1304.7335             35.8083               8.1088       
       1311.2571             35.5346               8.063        
       1317.8134             35.2458               8.0175       
       1324.4025             34.9405               7.9723       
       1331.0245             34.6172               7.9275       
       1337.6796             34.2739               7.883        
        1344.368             33.9086               7.8388       
       1351.0899             33.5188               7.7937       
       1357.8453             33.1015               7.7484       
       1364.6345             32.6531               7.7035       
       1371.4577             32.1695               7.6589       
        1378.315             31.6455               7.6146       
       1385.2066             31.0748               7.5707       
       1392.1326             30.4494               7.5271       
       1399.0933              29.759               7.4837       
       1406.0887             28.9902               7.4408       
       1413.1192             28.1245               7.3981       
       1420.1848             27.1371               7.3557       
       1427.2857             25.9882               7.3137       
       1434.4221             24.6188               7.2719       
       1441.5942             22.9259               7.2305       
       1448.8022             20.7073               7.1894       
       1456.0462             17.4624               7.1485       
       1463.3265              11.102               7.108        
       1467.4798             -7.6274               7.0851       
       1467.9202             -7.97086              26.608       
       1470.6431             8.04023               26.532       
       1477.9963              15.368               26.329       
       1485.3863              18.063               26.127       
       1492.8132             19.2819               25.926       
       1500.2773             19.4196               25.727       
       1507.7787             17.9223               25.53        
       1514.1684             7.84877               25.364       
       1515.0317             7.78268               38.095       
       1515.3176             9.89537               38.084       
       1522.8942             20.9882               37.787       
       1530.5086             24.6248               37.493       
       1538.1612             27.0972               37.201       
        1545.852             29.0321               36.912       
       1553.5812             30.6439               36.624       
       1561.3491             32.0345               36.338       
       1569.1559             33.2616               36.055       
       1577.0017             34.3615               35.774       
       1584.8867             35.3588               35.496       
       1592.8111              36.271               35.219       
       1600.7752             37.1112               34.945       
        1608.779             37.8892               34.673       
       1616.8229              38.613               34.404       
        1624.907             39.2887               34.136       
       1633.0316             39.9216               33.871       
       1641.1967             40.5157               33.608       
       1649.4027             41.0746               33.347       
       1657.6497             41.6013               33.088       
        1665.938             42.0982               32.831       
       1674.2677             42.5674               32.577       
        1682.639             43.0107               32.324       
       1691.0522             43.4297               32.073       
       1699.5075             43.8256               31.825       
        1708.005             44.1996               31.578       
        1716.545             44.5524               31.334       
       1725.1278             44.8848               31.091       
       1733.7534             45.1973               30.851       
       1742.4222             45.4903               30.612       
       1751.1343             45.7638               30.375       
       1759.8899             46.0179               30.14        
       1768.6894              46.252               29.907       
       1777.5328             46.4657               29.676       
       1786.4205             46.6579               29.447       
       1795.3526             46.8271               29.22        
       1804.3294             46.9709               28.994       
        1813.351              47.086               28.771       
       1822.4178             47.1676               28.549       
       1831.5299             47.2079               28.329       
       1840.6875             47.1947               28.11        
       1849.8909             47.1065               27.894       
       1859.1404             46.9006               27.679       
       1868.4361             46.4731               27.466       
       1877.7783             45.4244               27.255       
       1882.4082              43.804               27.151       
       1886.5918              43.85                31.766       
       1887.1672             44.2318               31.75        
        1896.603             46.7542               31.488       
        1906.086             47.8491               31.229       
       1915.6165             48.6072               30.971       
       1925.1945             49.2042               30.714       
       1934.8205             49.7033               30.46        
       1944.4946             50.1343               30.209       
       1954.2171             50.5134               29.959       
       1963.9882             50.8498               29.712       
       1973.8081             51.1481               29.466       
       1983.6772             51.4118               29.235       
       1993.5955             51.6542               29.014       
       2003.5635             51.8756               28.797       
       2013.5813             52.0754               28.583       
       2023.6492             52.2523               28.371       
       2033.7675             52.4038               28.162       
       2043.9363             52.5249               27.956       
        2054.156              52.606               27.753       
       2064.4268             52.6266               27.552       
       2074.7489             52.5309               27.353       
       2085.1227             52.0407               27.157       
       2087.4384             51.6756               27.113       
       2092.1614             51.7443               28.924       
       2095.5483              52.353               28.854       
        2106.026             53.1829               28.638       
       2116.5562             53.6739               28.425       
       2127.1389             54.0531               28.214       
       2137.7746             54.3726               28.006       
       2148.4635             54.6529                27.8        
       2159.2058             54.9043               27.596       
       2170.0018             55.1323               27.394       
       2180.8519              55.34                27.194       
       2191.7561             55.5284               26.996       
       2202.7149             55.7004               26.811       
       2213.7285             55.8613               26.629       
       2224.7971             56.0099               26.45        
       2235.9211             56.1451               26.273       
       2247.1007             56.2648               26.098       
       2258.3362             56.3654               25.925       
       2269.6279             56.4399               25.754       
        2280.976              56.473               25.585       
       2292.3809             56.4203               25.418       
       2302.2094             56.1306               25.276       
       2303.8428             55.9885               25.253       
       2311.3904             56.2497               26.325       
        2315.362             56.5389               26.267       
       2326.9388             57.0159                26.1        
       2338.5735             57.3383               25.934       
       2350.2664             57.6033               25.77        
       2362.0177              57.837               25.608       
       2373.8278             58.0503               25.447       
        2385.697             58.2491               25.288       
       2397.6254             58.4366               25.129       
       2409.6136             58.6151               24.972       
       2421.6616             58.7858               24.816       
       2433.7699             58.9506               24.663       
       2445.9388              59.111               24.511       
       2458.1685             59.2668               24.357       
       2470.4593             59.4173               24.202       
       2482.8116             59.5631               24.048       
       2495.2257             59.7047               23.896       
       2507.7018             59.8424               23.744       
       2520.2403             59.9765               23.594       
       2532.8415             60.1072               23.445       
       2545.5057             60.2349               23.297       
       2558.2333             60.3597               23.15        
       2571.0244             60.4817               23.003       
       2583.8796             60.6011               22.858       
        2596.799             60.7181               22.714       
       2609.7829             60.8327               22.571       
       2622.8319             60.9452               22.428       
        2635.946             61.0555               22.287       
       2649.1257             61.1638               22.146       
       2662.3714             61.2702               22.007       
       2675.6832             61.3748               21.868       
       2689.0617             61.4777               21.73        
        2702.507              61.579               21.592       
       2716.0195             61.6788               21.456       
       2729.5996             61.7768               21.318       
       2743.2476             61.8728               21.181       
       2756.9638             61.9669               21.045       
       2770.7486             62.0592               20.91        
       2784.6024             62.1499               20.776       
       2798.5254              62.239               20.642       
        2812.518             62.3265               20.509       
       2826.5806             62.4126               20.377       
       2840.7135             62.4974               20.246       
       2854.9171             62.5808               20.116       
       2869.1917              62.663               19.987       
       2883.5376             62.7441               19.858       
       2897.9553             62.8241               19.731       
       2912.4451             62.9032               19.604       
       2927.0073             62.9813               19.478       
       2941.6424             63.2813               19.352       
       2956.3506             63.3587               19.225       
       2971.1323             63.4355               19.098       
        2985.988              63.512               18.973       
       3000.9179             63.5908               18.847       
       3015.9225             63.6825               18.704       
       3031.0021             63.9106               18.561       
       3046.1571             63.9821               18.416       
       3061.3879              64.05                18.271       
       3076.6949             64.1148               18.129       
       3092.0783             64.1769               17.987       
       3107.5387             64.2364               17.847       
       3123.0764             64.2936               17.708       
       3138.6918             64.3486               17.57        
       3154.3853             64.4016               17.434       
       3170.1572             64.4526               17.299       
        3186.008             64.5018               17.165       
        3201.938             64.5492               17.032       
       3217.9477             64.5949               16.901       
       3234.0374              64.639               16.77        
       3250.2076             64.6816               16.641       
       3266.4587             64.7227               16.513       
        3282.791             64.7624               16.387       
       3299.2049             64.8007               16.261       
       3315.7009             64.8378               16.137       
       3332.2794             64.8736               16.013       
       3348.9408             64.9081               15.891       
       3365.6856             64.9416               15.77        
        3382.514             64.9739               15.648       
       3399.4265             65.0051               15.527       
       3416.4237             65.0351               15.407       
       3433.5058             65.0641               15.288       
       3450.6733              65.092               15.171       
       3467.9267             65.1188               15.054       
       3485.2663             65.1447               14.938       
       3502.6927             65.1696               14.824       
       3520.2061             65.1936               14.71        
       3537.8072             65.2168               14.597       
       3555.4962              65.239               14.486       
       3573.2737             65.2605               14.375       
        3591.14              65.2811               14.266       
       3609.0957              65.301               14.157       
       3627.1412             65.3201               14.05        
       3645.2769             65.3386               13.943       
       3663.5033             65.3563               13.838       
       3681.8208             65.3734               13.733       
       3700.2299             65.3899               13.63        
       3718.7311             65.4057               13.527       
       3737.3247              65.421               13.425       
       3756.0114             65.4358               13.324       
       3774.7914             65.5572               13.223       
       3793.6654             65.5716               13.119       
       3812.6337              65.585               13.017       
       3831.6969             65.5975               12.916       
       3850.8554             65.6091               12.815       
       3870.1096             65.6199               12.715       
       3889.4602             65.6299               12.617       
       3908.9075             65.6392               12.519       
        3928.452             65.6478               12.422       
       3948.0943             65.6557               12.326       
       3967.8347             65.6629               12.23        
       3987.6739             65.6695               12.136       
        4055.024             66.1088               11.825       
        4334.821             66.1107               10.658       
        4633.924             66.0094               9.6063       
        4953.664             65.8258               8.6601       
        5295.467              65.587               7.8175       
        5660.855             65.2974               7.0662       
        6051.453             64.9529               6.3955       
        6469.004              64.539               5.7885       
        6915.365             64.0048               5.2191       
        7392.525             63.2653               4.711        
        7902.609              62.104               4.2584       
        8447.89              59.2839               3.8477       
        8475.04              58.9756               3.8287       
        8604.76              56.0429               3.7405       
        8639.352              52.593               3.7176       
        8691.24              56.0824               10.419       
        8820.96              59.0778               9.9983       
        9030.794             60.3859               9.5496       
        9424.561             60.7158               9.0035       
        9568.814             59.5927               8.8174       
        9607.282             57.9397               8.7676       
        9653.919             59.4809               12.105       
        9664.983              59.791               12.082       
        9809.237             61.5257               11.774       
        9913.386             62.0369               11.552       
        10065.12             62.0671               11.228       
        10105.58              61.364               11.143       
        10166.28             62.4607               12.729       
        10320.04             63.7534               12.408       
        11032.12             66.1062               10.996       
        11793.34             67.2118               9.8298       
        12607.08             67.9569               8.8364       
        13476.97             68.4675               7.9243       
        14406.88             68.8093               7.1023       
        15400.95              69.035               6.3661       
        16463.62             69.1791               5.708        
        17599.61             69.3315               5.1161       
        18813.98             69.3678               4.5777       
        20112.15              69.403               4.0962       
        21499.88             69.4058               3.6598       
        22983.38             69.3572               3.2721       
        24569.23             69.2964               2.928        
        26264.5               69.233               2.6224       
        28076.76              69.164               2.3318       
        30014.05             69.0712               2.0697       
        32085.02             68.9695               1.8385       
        34298.89             68.8613               1.6344       
        36665.51             68.7471               1.4542       
        39195.43             68.6254               1.2928       
        41899.92             68.4912               1.1489       
        44791.01             68.3377               1.019        
        47881.59             68.1488              0.90164       
        51185.42             67.8932              0.79799       
        54717.21             67.4763              0.70656       
        58201.81              66.421              0.63175       
        58492.7              66.1954              0.62608       
        59092.65             65.2863              0.61465       
        59330.21             63.9276              0.61021       
        59686.55             65.3004               3.2783       
        60577.39             66.5405               3.205        
        62528.7               67.44                3.0529       
        66843.18             68.2358               2.7418       
        71455.36             68.6397               2.4583       
        76385.78             68.8894               2.2038       
        81656.4              69.0612               1.9726       
        87290.69             69.1715               1.7598       
        93313.74             69.2436               1.5702       
        99752.39             69.2898               1.4011       
        106635.3              69.318               1.2505       
        113993.1             69.3333               1.1162       
        121858.7             69.3682              0.99475       
        130266.9             69.3651              0.88429       
        139255.3             69.3557              0.78617       
        148864.0             69.3424               0.699        
        159135.6             69.3265              0.62156       
        170115.9              69.309              0.55275       
        181853.9             69.2906              0.49159       
        194401.8             69.2719              0.43724       
        207815.6             69.2532              0.38893       
        222154.8             69.2348              0.34599       
        237483.5             69.2169              0.30781       
        253869.9             69.1994              0.27387       
        271386.9             69.1828              0.24486       
        290112.6             69.1677              0.21921       
        310130.4             69.1538              0.19626       
        331529.4              69.141              0.17572       
        354404.9             69.1291              0.15735       
        378858.8             69.1182               0.1409       
        405000.1             69.1081              0.12618       
        432945.1             69.0987              0.11301       
