# U
# Form Factors from Chantler Tables
# DOI: https://dx.doi.org/10.18434/T4HS32
# automatically retrived 2019-02-28 using URL https://physics.nist.gov/cgi-bin/ffast/ffast.pl

# For f_rel the second term, which is 3/5th of the Cromer-Liberman value, is used as suggested by Chantler.
# Real and imaginary part of the formfactors are: f'(E)=f1(E)+f_rel+f_NT and f''(E)=f2(E)
# see also original publication:  https://doi.org/10.1063/1.555974

# Z = 92
# f_rel = -1.494 e/atom  (Relativistic correction estimate)
# f_NT = -0.019507 e/atom (Nuclear Thomson correction)


#        E (eV)            f1 (e/atom)          f2 (e/atom)     
         10.69               27.9528                0.0         
        11.42761              27.924                0.0         
        12.21612             27.8903                0.0         
        13.05903              27.851                0.0         
        13.9601              27.8047                0.0         
        14.92335              27.75                 0.0         
        15.95306              27.685                0.0         
        17.05382             27.6071                0.0         
        18.23053             27.5129                0.0         
        19.48844             27.3977                0.0         
        20.83314             27.2543                0.0         
        22.27063             27.0722                0.0         
        23.8073              26.8339                0.0         
        25.45001             26.5079                0.0         
        27.20606              26.029                0.0         
        29.08327             25.2244                0.0         
        31.09002             23.2943                0.0         
         31.654              21.9218                0.0         
        32.1385              18.6305                0.0         
        32.2677              14.5636                0.0         
        32.4615              19.0028               8.0655       
         32.946              22.9015               7.6492       
        33.23523             23.9626               7.4137       
        35.52846             27.2256               5.8396       
        37.97993             28.0338               4.5971       
        40.60054             27.5227               3.6227       
         41.454              26.7247               3.3657       
        42.0885              24.8339               3.1905       
        42.2577              22.4394               3.1459       
        42.5115              25.0834               7.8564       
         43.146              27.4314               7.4619       
        43.40198             27.8951               7.3103       
        46.39671             30.0844               5.8073       
        49.59809             30.6978               4.6607       
        53.02035             30.8446               3.8042       
        56.67876              30.772               3.1486       
        60.58959             30.5638               2.636        
        64.77028             30.2417               2.2277       
        69.23942             29.7524               1.8973       
         69.286              29.7454               1.8943       
        70.3465              29.5268               1.828        
        70.6293               29.357               1.811        
        71.0535              29.4678               2.0657       
         72.114              29.4897               1.9896       
        74.01695             29.3537               1.864        
        79.12411             28.7159               1.5845       
        84.58368             27.6572               1.3608       
        90.41995             25.6551               1.1805       
         94.374              22.3349               1.0826       
        95.8185              18.1716               1.0507       
        96.2037              13.2881               1.0425       
        96.65893             17.4096               10.594       
        96.7815              18.3211               10.566       
         98.226              22.5593               10.235       
         102.9               24.8399               9.2675       
        103.3284             24.6539               9.1858       
        104.475              23.0502               8.9723       
        104.895              20.1569               8.896        
        105.525               23.627               14.841       
         107.1               27.0271               14.433       
        110.4581             30.0483               13.559       
        118.0797             33.4113               11.642       
        126.2272             35.2065               9.6348       
        134.9368             36.0127               7.7566       
        144.2475             36.1795               6.1725       
        154.2005             35.9585               4.9189       
        164.8404             35.5078               3.9643       
        176.2144             34.8996               3.2536       
        188.3732             34.0579               2.7311       
        191.198              33.7615               2.6353       
        194.1245             33.1784               2.5442       
        194.9049             32.6034               2.5212       
        196.0755             33.1077               3.5505       
        199.002              33.4659               3.4612       
        201.3709             33.5341               3.3938       
        215.2655             33.3723               3.0715       
        230.1188             32.9363               2.8345       
        245.997              32.3325               2.6663       
        254.114              31.9033               2.6041       
        258.0035             31.5076               2.5788       
        259.0407             31.1474               2.5725       
        260.5965             31.4447               3.2065       
        262.9708             31.5923               3.1757       
        264.486              31.6172               3.1568       
        281.1158             31.3188               2.9841       
        300.5128             30.6073               2.8491       
        317.226              29.7959               2.7776       
        321.2482             29.5385               2.765        
        322.0815             29.4695               2.7626       
        323.3763              29.295               2.7589       
        325.3185             29.3089               2.9706       
        330.174              29.1549               2.9605       
        343.4143              28.488               2.9416       
        367.1099             26.8836               2.9316       
        373.282              26.3425               2.9328       
        378.9955             25.7157               2.9349       
        380.5191             25.4349               2.9356       
        382.8045             25.3129               3.2026       
        383.474              25.2644               3.2108       
        388.518              24.7687               3.281        
        389.3435             24.6666               3.2939       
        390.9087             24.4069               3.3195       
        392.4405             24.3091               3.5522       
        393.2565             24.2563               3.5743       
        399.126               23.706               3.7559       
        419.5189             21.3041               4.8226       
        448.4657             17.7332               7.9788       
        479.4098             15.0367               13.269       
        512.4891             14.4442               20.027       
        547.8508             16.4762               26.903       
        585.6525             20.7109               32.585       
        626.0625             26.1225               36.34        
        669.2609              31.563               38.08        
        715.4399             35.6536               38.143       
        722.946              35.9117               38.032       
        734.0115             35.2859               37.824       
        736.9623             33.6416               37.76        
        741.3885             35.8717               41.359       
        752.454              38.3022               41.135       
        764.8052             39.7072               40.844       
        776.498              40.1205               40.535       
        779.6196             39.3107               40.447       
        784.302              40.9476               42.572       
        796.008              43.0958               42.262       
        817.5768             45.6281               41.65        
        873.9896               50.3                39.885       
        934.2948             53.7743               37.929       
        998.7612             56.2746               35.952       
        1024.002             56.7617               35.157       
        1039.675             56.3907               34.673       
        1043.855             55.4427               34.545       
        1050.124             56.7055               36.492       
        1065.798             58.1523               36.075       
        1067.676              58.271               36.026       
        1141.345              61.451               34.109       
        1220.098             63.7054               32.167       
        1247.148             64.2924               31.543       
        1266.237             64.5437               31.076       
        1271.327             64.4228               30.953       
        1278.963             64.8365               31.232       
        1298.052             65.4451               30.775       
        1304.285             65.6027               30.628       
        1394.281             67.2306               28.569       
        1411.984             67.4332               28.194       
        1433.596             67.5238               27.75        
        1439.359             67.3356               27.634       
        1448.004             67.7376               27.992       
        1469.616             68.2637               27.573       
        1490.486             68.6245               27.181       
        1593.329              69.937               25.229       
        1703.269             70.8029               23.293       
        1820.795             71.3695               21.544       
        1946.43              71.7207               19.946       
        2080.733             71.8915               18.49        
        2224.304             71.9718               17.142       
        2377.781             71.8121               15.922       
        2541.848             71.4495               14.819       
        2717.235             70.8654               13.811       
        2904.724             69.9412               12.896       
        3105.15              68.6251               11.834       
        3319.406              65.439               10.677       
        3480.666             59.7039               9.9352       
        3533.942             53.8613               9.7113       
        3548.445             47.4966               9.6521       
        3569.459             52.6347               20.892       
        3622.734              56.173               21.494       
        3653.048             56.5213               21.86        
        3708.962              54.624               22.581       
        3723.872             50.7198               22.783       
        3746.238             55.7172               31.484       
        3793.288             60.5481               31.609       
        3802.152             61.1356               31.623       
        4055.024             70.7049               30.305       
        4217.332             73.0339               28.336       
        4281.883              72.236               27.486       
        4299.097              70.244               27.258       
        4324.917             72.8482               31.346       
        4334.821             73.5305               31.209       
        4389.468             75.6949               30.458       
        4633.924              79.742               27.299       
        4953.664             81.7842               24.172       
        5078.556             82.0216               23.162       
        5156.289             81.6845               22.579       
        5177.018             81.0069               22.429       
        5208.111             81.8451               23.676       
        5285.844             82.7243               23.136       
        5295.467             82.7906               23.071       
        5437.04              83.4056               22.163       
        5520.26              83.3692               21.668       
        5542.452             82.9745               21.539       
        5575.74               83.591               22.303       
        5660.855             84.3339               21.828       
        6051.453             85.8919               19.892       
        6469.004             86.8845               18.16        
        6915.365             87.6315               16.578       
        7392.525              88.34                15.073       
        7902.609             88.8088               13.659       
        8447.89              89.0434               12.396       
        9030.794             89.3244               11.217       
        9653.919             89.3484               10.035       
        10320.04             89.2472               8.9963       
        11032.12             89.1021               8.0616       
        11793.34             88.8563               7.2272       
        12607.08             88.5144               6.4889       
        13476.97             88.0793               5.8352       
        14406.88             87.5056               5.2532       
        15400.95             86.6632               4.733        
        16463.62             84.9904               4.2573       
        16822.97              83.702               4.1139       
        17080.47              81.184               4.0165       
        17149.13             78.2159               3.9912       
        17252.13             81.1816               9.7676       
        17509.63             83.8201               9.5374       
        17599.61             84.2601               9.4591       
        18813.98             86.5214               8.4719       
        20112.15              86.643               7.5551       
        20528.65             86.1569               7.2931       
        20842.86             84.9264               7.1048       
        20926.65             83.4187               7.0559       
        21052.34             84.9155               9.9432       
        21322.25             86.0676               9.7423       
        21366.55             86.1487                9.71        
        21499.88             86.2893               9.6138       
        21648.61             86.1911               9.5083       
        21735.64             85.5954               9.4475       
        21866.19             86.5378               10.82        
        22192.55             87.6176               10.587       
        22983.38              88.844               10.043       
        24569.23             90.1206               9.0627       
        26264.5              90.8923               8.177        
        28076.76             91.4167               7.3433       
        30014.05             91.7506               6.576        
        32085.02             91.9635               5.893        
        34298.89             92.0978               5.2854       
        36665.51             92.2294                4.73        
        39195.43             92.2566               4.2372       
        41899.92             92.2905               3.7996       
        44791.01             92.2915               3.3967       
        47881.59             92.2438               3.0332       
        51185.42             92.1798               2.7107       
        54717.21             92.1051               2.4243       
        58492.7              92.0229               2.1699       
        62528.7              91.9351               1.9436       
        66843.18             91.8426               1.7422       
        71455.36             91.7453               1.5628       
        76385.78             91.6425               1.4021       
        81656.4              91.5374               1.2542       
        87290.69             91.4048               1.1164       
        93313.74             91.2401              0.99385       
        99752.39             91.0167              0.88245       
        106635.3             90.6512              0.78376       
        113294.0              89.754              0.70418       
        113993.1             89.5066              0.69658       
        115028.1             88.7858              0.68558       
        115490.5             87.6284              0.68076       
        116184.1             88.8339               2.9507       
        117918.2             89.8873               2.8843       
        121858.7             90.6637               2.7419       
        130266.9             91.3182               2.4727       
        139255.3             91.6532               2.2281       
        148864.0             91.8604               2.0069       
        159135.6             91.9976               1.8075       
        170115.9             92.0914               1.627        
        181853.9             92.1545               1.464        
        194401.8             92.1962               1.3174       
        207815.6             92.2226               1.1856       
        222154.8             92.2378               1.067        
        237483.5             92.2446               0.9605       
        253869.9             92.2454              0.86554       
        271386.9             92.2423              0.78024       
        290112.6             92.2362              0.70343       
        310130.4             92.2281              0.63425       
        331529.4             92.2184              0.57194       
        354404.9             92.2078              0.51581       
        378858.8             92.1966              0.46523       
        405000.1             92.1851              0.41966       
        432945.1             92.1736              0.37858       
