# W
# Form Factors from Chantler Tables
# DOI: https://dx.doi.org/10.18434/T4HS32
# automatically retrived 2019-02-27 using URL https://physics.nist.gov/cgi-bin/ffast/ffast.pl
#
# Z = 74
# f_rel = -1.4515 e/atom  (Relativistic correction estimate)
# f_NT = -0.01634 e/atom (Nuclear Thomson correction)


#        E (eV)            f1 (e/atom)          f2 (e/atom)     
         5.978                6.6566                0.0         
         6.0695              6.08378                0.0         
         6.0939              5.43188                0.0         
         6.1305              6.07665               1.264        
         6.222               6.61931               1.2569       
         10.69               6.56496               2.8092       
        11.42761             6.58098               3.3151       
        12.21612             6.68973               3.8688       
        13.05903             6.90985               4.4462       
        13.9601              7.25243               5.0157       
        14.92335              7.7179               5.5412       
        15.95306             8.29414               5.9859       
        17.05382             8.95658               6.3173       
        18.23053             9.67031               6.5117       
        19.48844             10.4305               6.5573       
        20.83314             11.1203               6.455        
        22.27063             11.7349               6.2179       
        23.8073              12.2377               5.8684       
        25.45001             12.5975               5.4333       
        27.20606             12.7802               4.9392       
        29.08327             12.7425               4.4187       
        31.09002              12.396               3.8996       
         32.928              11.6002                3.47        
        33.23523             11.3527               3.4028       
         33.432              11.1252               3.3604       
        33.5664              10.8065               3.3318       
         33.768              10.9013               3.7405       
         34.272              10.6426               3.6194       
         34.888              9.79398               3.4773       
         35.422              7.64986               3.3593       
        35.52846             6.18367               3.3363       
        35.5644              5.04927               3.3286       
         35.77               7.68767               8.4061       
         35.778               7.7649               8.4024       
        36.3175               10.058               8.1578       
        36.4635              10.2313               8.0933       
        36.6825              10.7991               8.3052       
         37.23               11.6701               8.0634       
        37.97993              12.399               7.7505       
        40.60054             13.6087               6.7833       
        43.40198             13.8839               5.8781       
         45.864              13.1951               5.204        
        46.39671             12.5737               5.0734       
         46.566              12.1538               5.033        
        46.7532              10.8814               4.9889       
         47.034              12.2052               7.4381       
         47.736              13.3694               7.2554       
        49.59809             14.3109               6.8159       
        53.02035             14.9342               6.1523       
        56.67876              15.154               5.5407       
        60.58959              15.105               5.0115       
        64.77028             14.8547               4.6086       
        69.23942              14.455               4.3611       
        74.01695             13.9447               4.2864       
         75.558              13.7648               4.2998       
        76.7145              13.6117               4.3209       
        77.0229              13.5465               4.3281       
        77.4855              13.5269               4.4018       
         78.642              13.4278               4.4392       
        79.12411             13.3807               4.4574       
        84.58368             12.8282               4.7586       
        90.41995             12.2717               5.2496       
        96.65893             11.7538               5.9297       
         100.0               13.0562               6.3475       
         100.5               13.0233               6.4128       
        101.0025             12.9096               6.4792       
       101.50751             12.8777               6.5465       
       102.01505             12.8465               6.6148       
       102.52513             12.8158               6.6841       
       103.03775             12.7857               6.7544       
       103.55294             12.7562               6.8257       
        104.0707             12.7273               6.8979       
       104.59106              12.699               6.9712       
       105.11401             12.6714               7.0454       
       105.63958             12.6445               7.1206       
       106.16778             12.6183               7.1967       
       106.69862             12.5927               7.2738       
       107.23211             12.5679               7.3518       
       107.76827             12.5437               7.4307       
       108.30712             12.5204               7.5106       
       108.84865             12.4977               7.5914       
       109.39289             12.4759               7.6732       
       109.93986             12.3657               7.7558       
       110.48956             12.3454               7.8393       
       111.04201             12.3259               7.9238       
       111.59722             12.3073               8.0091       
        112.1552             12.2895               8.0953       
       112.71598             12.2726               8.1823       
       113.27956             12.2565               8.2703       
       113.84596             12.2414               8.359        
       114.41519             12.2271               8.4486       
       114.98726             12.2137               8.5396       
        115.5622             12.2013               8.6315       
       116.14001             12.1899               8.7242       
       116.72071             12.1794               8.8177       
       117.30431              12.17                8.912        
       117.89083             12.1616               9.007        
       118.48029             12.1542               9.1028       
       119.07269             12.1478               9.1994       
       119.66805             12.1426               9.2967       
       120.26639             12.1384               9.3948       
       120.86772             12.1352               9.4935       
       121.47206             12.1332               9.593        
       122.07942             12.1323               9.6932       
       122.68982             12.1325               9.794        
       123.30327             12.1339               9.8955       
       123.91979             12.1364               9.9977       
       124.53939             12.1401                10.1        
       125.16208              12.145               10.204       
       125.78789             12.1511               10.308       
       126.41683             12.1584               10.413       
       127.04892              12.167               10.518       
       127.68416             12.1768               10.624       
       128.32258             12.1878               10.73        
       128.96419             12.2002               10.837       
       129.60902             12.2138               10.944       
       130.25706             12.2287               11.052       
       130.90835              12.245               11.161       
       131.56289             12.2626               11.269       
        132.2207             12.2816               11.379       
       132.88181             12.3019               11.489       
       133.54621             12.3237               11.599       
       134.21395             12.3468               11.709       
       134.88502             12.3714               11.82        
       135.55944             12.3974               11.932       
       136.23724             12.4248               12.043       
       136.91842             12.4537               12.155       
       137.60302              12.484               12.266       
       138.29103             12.5158               12.378       
       138.98249             12.5489               12.49        
        139.6774             12.5835               12.602       
       140.37579             12.6195               12.714       
       141.07766             12.6583               12.826       
       141.78305             12.6972               12.938       
       142.49197             12.7375               13.05        
       143.20443             12.7792               13.162       
       143.92045             12.8224               13.274       
       144.64005              12.867               13.386       
       145.36325              12.913               13.498       
       146.09007             12.9605               13.61        
       146.82052             13.0094               13.722       
       147.55462             13.0597               13.833       
       148.29239             13.1114               13.944       
       149.03386             13.1645               14.055       
       149.77903              13.219               14.165       
       150.52792             13.2749               14.275       
       151.28056             13.3321               14.385       
       152.03696             13.3907               14.494       
       152.79715             13.4505               14.603       
       153.56113             13.5117               14.711       
       154.32894             13.5742               14.819       
       155.10058             13.6379               14.927       
       155.87609              13.703               15.034       
       156.65547             13.7692               15.14        
       157.43875             13.8367               15.246       
       158.22594             13.9054               15.352       
       159.01707             13.9754               15.456       
       159.81215             14.0465               15.561       
       160.61121             14.1188               15.664       
       161.41427             14.1922               15.767       
       162.22134             14.2668               15.87        
       163.03245             14.3426               15.972       
       163.84761             14.4194               16.073       
       164.66685             14.4973               16.173       
       165.49018             14.5763               16.273       
       166.31763             14.6564               16.372       
       167.14922             14.7375               16.471       
       167.98497             14.8197               16.568       
       168.82489             14.9029               16.665       
       169.66902              14.987               16.761       
       170.51736             15.0721               16.857       
       171.36995             15.1582               16.952       
        172.2268             15.2453               17.045       
       173.08793             15.3332               17.138       
       173.95337             15.4221               17.231       
       174.82314             15.5118               17.322       
       175.69726             15.6025               17.413       
       176.57574             15.6939               17.503       
       177.45862             15.7862               17.591       
       178.34591             15.8794               17.679       
       179.23764             15.9733               17.767       
       180.13383             16.0679               17.853       
        181.0345             16.1634               17.938       
       181.93967             16.2595               18.023       
       182.84937             16.3564               18.106       
       183.76362              16.454               18.189       
       184.68244             16.5522               18.271       
       185.60585             16.6511               18.352       
       186.53388             16.7507               18.432       
       187.46655             16.8508               18.511       
       188.40388             16.9515               18.589       
        189.3459             17.0528               18.666       
       190.29263             17.1547               18.742       
       191.24409              17.257               18.817       
       192.20031             17.3599               18.891       
       193.16131             17.4633               18.965       
       194.12712             17.5671               19.037       
       195.09776             17.6713               19.108       
       196.07325              17.776               19.179       
       197.05361              17.881               19.248       
       198.03888             17.9864               19.316       
       199.02907             18.0922               19.384       
       200.02422             18.1983               19.45        
       201.02434             18.3046               19.516       
       202.02946             18.4112               19.58        
       203.03961             18.5181               19.643       
       204.05481             18.6251               19.706       
       205.07508             18.7324               19.767       
       206.10046             18.8398               19.828       
       207.13096             18.9473               19.887       
       208.16661             19.0549               19.946       
       209.20745             19.1626               20.003       
       210.25348             19.2702               20.06        
       211.30475             19.3779               20.115       
       212.36128             19.4855               20.17        
       213.42308             19.5931               20.223       
        214.4902             19.7004               20.276       
       215.56265             19.8077               20.327       
       216.64046             19.9147               20.378       
       217.72366             20.0214               20.427       
       218.81228             20.1277               20.476       
       219.90634             20.2337               20.524       
       221.00588             20.3392               20.57        
        222.1109             20.4442               20.616       
       223.22146             20.5485               20.661       
       224.33757             20.6521               20.704       
       225.45925             20.7549               20.747       
       226.58655             20.8567               20.789       
       227.71948             20.9573               20.83        
       228.85808             21.0567               20.87        
       230.00237             21.1545               20.909       
       231.15238             21.2506               20.947       
       232.30814             21.3466               20.984       
       233.46969             21.4379               21.02        
       234.63703             21.5261               21.056       
       235.81022             21.6104               21.09        
       236.98927             21.6897               21.124       
       238.17422             21.7625               21.156       
       239.36509             21.8262               21.188       
       240.56191             21.8767               21.219       
       241.76472             21.9062               21.249       
       242.97355             21.8968               21.278       
       244.18841             21.7913               21.306       
       245.21055              21.276               21.328       
       245.40936             20.2858               22.386       
       245.58945             21.3122               22.389       
        246.6364             22.0383               22.404       
       247.86959             22.3776               22.417       
       249.10893             22.6171               22.428       
       250.35448             22.8125               22.439       
       251.60625             22.9801               22.449       
       252.86428             23.1256               22.457       
        254.1286             23.2494               22.465       
       255.39925             23.3463               22.471       
       256.67624             23.3987               22.476       
       257.95962             23.3312               22.48        
       258.59581             23.0534               22.481       
       259.00419             23.1065               23.281       
       259.24942             23.3386               23.281       
       260.54567             23.8455               23.279       
        261.8484             24.1448               23.275       
       263.15764              24.39                23.271       
       264.47343             24.6085               23.265       
       265.79579             24.8106               23.258       
       267.12477             25.0014               23.251       
        268.4604             25.1835               23.242       
        269.8027             25.3587               23.232       
       271.15171             25.5282               23.222       
       272.50747             25.6928               23.21        
       273.87001             25.8531               23.199       
       275.23936             26.0099               23.186       
       276.61556             26.1634               23.173       
       277.99863              26.314               23.16        
       279.38863             26.4619               23.145       
       280.78557             26.6073               23.13        
        282.1895             26.7504               23.115       
       283.60044             26.8914               23.099       
       285.01845             27.0301               23.082       
       286.44354             27.1668               23.065       
       287.87576             27.3016               23.048       
       289.31514             27.4346               23.03        
       290.76171              27.566               23.012       
       292.21552             27.6959               22.994       
        293.6766             27.8244               22.975       
       295.14498             27.9514               22.957       
       296.62071             28.0772               22.938       
       298.10381             28.2017               22.918       
       299.59433              28.325               22.898       
        301.0923             28.4471               22.878       
       302.59776             28.5681               22.858       
       304.11075             28.6879               22.837       
        305.6313             28.8067               22.816       
       307.15946             28.9245               22.795       
       308.69526             29.0412               22.774       
       310.23873             29.1569               22.752       
       311.78993             29.2715               22.729       
       313.34888             29.3853               22.707       
       314.91562              29.498               22.684       
        316.4902             29.6098               22.661       
       318.07265             29.7206               22.638       
       319.66301             29.8305               22.614       
       321.26133             29.9395               22.59        
       322.86764             30.0476               22.566       
       324.48197             30.1547               22.541       
       326.10438             30.2609               22.516       
       327.73491             30.3663               22.491       
       329.37358             30.4707               22.466       
       331.02045             30.5742               22.44        
       332.67555             30.6768               22.414       
       334.33893             30.7785               22.388       
       336.01062             30.8793               22.362       
       337.69068             30.9792               22.335       
       339.37913             31.0782               22.308       
       341.07602             31.1763               22.281       
        342.7814             31.2735               22.254       
       344.49531             31.3697               22.226       
       346.21779              31.465               22.199       
       347.94888             31.5594               22.171       
       349.68862             31.6529               22.143       
       351.43706             31.7454               22.114       
       353.19425              31.837               22.086       
       354.96022             31.9276               22.057       
       356.73502             32.0171               22.029       
        358.5187             32.1057                22.0        
       360.31129             32.1933               21.971       
       362.11285             32.2799               21.941       
       363.92341             32.3654               21.912       
       365.74303             32.4498               21.882       
       367.57174              32.533               21.853       
        369.4096             32.6152               21.823       
       371.25665             32.6962               21.793       
       373.11293             32.7759               21.763       
        374.9785             32.8544               21.733       
       376.85339             32.9316               21.703       
       378.73766             33.0075               21.673       
       380.63135             33.0818               21.642       
        382.5345             33.1547               21.612       
       384.44718              33.226               21.581       
       386.36941             33.2956               21.551       
       388.30126             33.3634               21.52        
       390.24276             33.4292               21.489       
       392.19398             33.4929               21.459       
       394.15495             33.5543               21.428       
       396.12572             33.6132               21.397       
       398.10635             33.6692               21.366       
       400.09688             33.7221               21.335       
       402.09737             33.7712               21.304       
       404.10785             33.8162               21.273       
       406.12839             33.8562               21.242       
       408.15904             33.8902               21.211       
       410.19983             33.9168               21.18        
       412.25083              33.934               21.149       
       414.31208             33.9387               21.118       
       416.38364             33.9257               21.087       
       418.46556              33.886               21.055       
       420.55789             33.7998               21.024       
       422.66068             33.6117               20.993       
       424.77398             32.9521               20.962       
       424.77688             32.9497               20.962       
       425.82312             32.9876               22.384       
       426.89785             33.5375               22.37        
       429.03234             34.0037               22.343       
        431.1775             34.2898               22.315       
       433.33339              34.511               22.288       
       435.50006             34.6984               22.26        
       437.67756             34.8647               22.232       
       439.86595             35.0166               22.205       
       442.06528              35.158               22.177       
        444.2756             35.2914               22.15        
       446.49698             35.4183               22.122       
       448.72947             35.5398               22.095       
       450.97311             35.6569               22.067       
       453.22798             35.7701               22.04        
       455.49412             35.8798               22.012       
       457.77159             35.9865               21.985       
       460.06045             36.0903               21.957       
       462.36075             36.1914               21.93        
       464.67255             36.2899               21.902       
       466.99592             36.3859               21.875       
        469.3309             36.4793               21.847       
       471.67755             36.5701               21.82        
       474.03594             36.6579               21.793       
       476.40612             36.7424               21.765       
       478.78815             36.8229               21.737       
       481.18209             36.8983               21.71        
        483.588              36.9663               21.682       
       486.00594             37.0224               21.655       
       488.43597             37.0537               21.627       
       490.87815             36.9815               21.599       
        490.9216             36.9762               21.599       
       492.27841             37.0276               21.937       
       493.33254              37.173               21.926       
        495.7992             37.3657                21.9        
        498.2782             37.5106               21.874       
       500.76959             37.6386               21.848       
       503.27344             37.7577               21.822       
        505.7898              37.871               21.796       
       508.31875             37.9804               21.769       
       510.86035             38.0868               21.743       
       513.41465             38.1908               21.717       
       515.98172             38.2928               21.69        
       518.56163             38.3931               21.664       
       521.15444              38.492               21.637       
       523.76021             38.5895               21.61        
       526.37901             38.6859               21.583       
       529.01091             38.7811               21.557       
       531.65596             38.8754               21.53        
       534.31424             38.9686               21.503       
       536.98581             39.0609               21.476       
       539.67074             39.1523               21.448       
        542.3691             39.2428               21.421       
       545.08094             39.3323               21.394       
       547.80635             39.4208               21.366       
       550.54538             39.5084               21.338       
        553.2981             39.5949               21.311       
        556.0646             39.6803               21.283       
       558.84492             39.7645               21.255       
       561.63914             39.8473               21.227       
       564.44734             39.9286               21.198       
       567.26958             40.0082               21.17        
       570.10592             40.0856               21.141       
       572.95645             40.1605               21.113       
       575.82123             40.2323               21.084       
       578.70034             40.2998               21.055       
       581.59384             40.3616               21.026       
       584.50181             40.4149               20.997       
       587.42432             40.4542               20.967       
       590.36144             40.4654               20.937       
       593.31325              40.388               20.908       
       594.10753             40.3052                20.9        
       595.89253             40.3616               21.414       
       596.27982             40.4348               21.411       
       599.26122             40.7326               21.381       
       602.25752             40.9169               21.352       
       605.26881             41.0698               21.322       
       608.29515             41.2078               21.292       
       611.33663             41.3369               21.262       
       614.39331             41.4602               21.232       
       617.46528             41.5795               21.202       
        620.5526             41.6956               21.171       
       623.65537             41.8095               21.141       
       626.77364             41.9215               21.11        
       629.90751              42.032               21.079       
       633.05705             42.1416               21.036       
       636.22234             42.2496               20.987       
       639.40345              42.356               20.937       
       642.60046              42.461               20.888       
       645.81347             42.5646               20.839       
       649.04253              42.667               20.789       
       652.28775             42.7682               20.74        
       655.54919             42.8684               20.69        
       658.82693             42.9676               20.64        
       662.12107             43.0658               20.59        
       665.43167             43.1631               20.54        
       668.75883             43.2595               20.49        
       672.10262             43.3552               20.439       
       675.46314              43.45                20.389       
       678.84045             43.5441               20.338       
       682.23466             43.6375               20.287       
       685.64583             43.7303               20.235       
       689.07406             43.8225               20.172       
       692.51943             43.9136               20.109       
       695.98202             44.0035               20.046       
       699.46194             44.0924               19.983       
       702.95924             44.1802               19.92        
       706.47404              44.267               19.857       
       710.00641             44.3529               19.794       
       713.55644             44.4378               19.73        
       717.12423             44.5218               19.667       
       720.70985             44.6048               19.603       
        724.3134             44.6867               19.538       
       727.93496             44.7676               19.474       
       731.57464             44.8474               19.409       
       735.23251             44.9262               19.344       
       738.90867             45.0187               19.279       
       742.60322             45.0957               19.214       
       746.31623             45.1718               19.149       
       750.04781             45.2469               19.084       
       753.79805             45.3211               19.019       
       757.56704             45.3944               18.954       
       761.35488             45.4667               18.889       
       765.16165             45.5382               18.823       
       768.98746             45.6088               18.758       
        772.8324             45.6786               18.693       
       776.69656             45.7586               18.628       
       780.58004             45.8268               18.562       
       784.48294             45.8941               18.497       
       788.40536             45.9606               18.432       
       792.34738             46.0263               18.366       
       796.30912             46.0912               18.301       
       800.29067             46.1553               18.236       
       804.29212             46.2186               18.17        
       808.31358             46.2811               18.105       
       812.35515             46.3428               18.04        
       816.41693             46.4038               17.975       
       820.49901              46.464               17.909       
        824.6015             46.5235               17.844       
       828.72451             46.5823               17.779       
       832.86813             46.6403               17.713       
       837.03248             46.6975               17.648       
       841.21764             46.7539               17.582       
       845.42373             46.8096               17.517       
       849.65084             46.8645               17.451       
        853.8991             46.9187               17.386       
       858.16859             46.9721               17.32        
       862.45944             47.0247               17.255       
       866.77173             47.0767               17.19        
       871.10559             47.1279               17.124       
       875.46112             47.1784               17.059       
       879.83843             47.2281               16.994       
       884.23762             47.2772               16.929       
       888.65881             47.3256               16.864       
        893.1021             47.3733               16.799       
       897.56761             47.4203               16.734       
       902.05545             47.4666               16.669       
       906.56573             47.5122               16.605       
       911.09856             47.5572               16.54        
       915.65405             47.6016               16.475       
       920.23232             47.6453               16.411       
       924.83348             47.6884               16.346       
       929.45765             47.7309               16.282       
       934.10494             47.7727               16.218       
       938.77546              47.814               16.154       
       943.46934             47.8547               16.09        
       948.18668             47.8948               16.026       
       952.92762             47.9344               15.962       
       957.69226             47.9735               15.899       
       962.48072             48.0121               15.835       
       967.29312             48.0502               15.772       
       972.12959             48.0878               15.709       
       976.99023              48.125               15.646       
       981.87519             48.1618               15.583       
       986.78456             48.1983               15.52        
       991.71848             48.2345               15.457       
       996.67708             48.2704               15.395       
       1001.6605             48.6747               15.321       
       1006.6688             48.7529               15.226       
       1011.7021             48.8078               15.131       
       1016.7606             48.8558               15.038       
       1021.8444             48.8986               14.944       
       1026.9536             48.9373               14.852       
       1032.0884             48.9722               14.76        
       1037.2489             49.0039               14.667       
       1042.4351              49.032               14.569       
       1047.6473             49.0568               14.473       
       1052.8855             49.0786               14.377       
       1058.1499             49.0975               14.282       
       1063.4407             49.1137               14.188       
       1068.7579             49.1273               14.095       
       1074.1017             49.1385               14.003       
       1079.4722             49.1474               13.911       
       1084.8695              49.154               13.821       
       1090.2939             49.1585               13.731       
       1095.7454             49.1609               13.642       
       1101.2241             49.1614               13.553       
       1106.7302             49.1599               13.466       
       1112.2639             49.1566               13.379       
       1117.8252             49.1514               13.293       
       1123.4143             49.1444               13.207       
       1129.0314             49.1357               13.123       
       1134.6765             49.1252               13.039       
       1140.3499             49.1131               12.956       
       1146.0517             49.0993               12.873       
       1151.7819             49.0838               12.792       
       1157.5408             49.0668               12.711       
       1163.3285             49.0481               12.63        
       1169.1452             49.0278               12.551       
       1174.9909              49.006               12.472       
       1180.8659             48.9825               12.394       
       1186.7702             48.9575               12.316       
        1192.704             48.9309               12.239       
       1198.6676             48.9027               12.163       
       1204.6609              48.873               12.087       
       1210.6842             48.8417               12.012       
       1216.7376             48.8088               11.938       
       1222.8213             48.7743               11.864       
       1228.9354             48.7382               11.791       
       1235.0801             48.7005               11.719       
       1241.2555             48.6611               11.647       
       1247.4618             48.6201               11.576       
       1253.6991             48.5775               11.505       
       1259.9676             48.5332               11.435       
       1266.2674             48.4871               11.365       
       1272.5988             48.4394               11.297       
       1278.9618              48.392               11.228       
       1285.3566             48.3407               11.161       
       1291.7833             48.2876               11.093       
       1298.2423             48.2326               11.027       
       1304.7335             48.1757               10.961       
       1311.2571              48.117               10.895       
       1317.8134             48.0562               10.83        
       1324.4025             47.9934               10.766       
       1331.0245             47.9286               10.702       
       1337.6796             47.8617               10.638       
        1344.368             47.7926               10.575       
       1351.0899             47.7213               10.513       
       1357.8453             47.6477               10.451       
       1364.6345             47.5717               10.39        
       1371.4577             47.4934               10.329       
        1378.315             47.4125               10.269       
       1385.2066             47.3291               10.209       
       1392.1326              47.243               10.149       
       1399.0933             47.1542               10.091       
       1406.0887             47.0625               10.032       
       1413.1192             46.9679               9.9742       
       1420.1848             46.8702               9.9168       
       1427.2857             46.7693               9.8598       
       1434.4221             46.6652               9.8032       
       1441.5942             46.5576               9.7471       
       1448.8022             46.4465               9.6915       
       1456.0462             46.3316               9.6362       
       1463.3265             46.2129               9.5814       
       1470.6431             46.0901               9.527        
       1477.9963             45.9654               9.473        
       1485.3863             45.8339               9.4195       
       1492.8132             45.6978               9.3664       
       1500.2773             45.5567               9.3137       
       1507.7787             45.4105               9.2615       
       1515.3176             45.2588               9.2096       
       1522.8942             45.1013               9.1582       
       1530.5086             44.9378               9.1072       
       1538.1612             44.7679               9.0565       
        1545.852             44.5911               9.0063       
       1553.5812             44.4071               8.9565       
       1561.3491             44.2154               8.907        
       1569.1559             44.0154               8.858        
       1577.0017             43.8066               8.8093       
       1584.8867             43.5884               8.761        
       1592.8111              43.36                8.7131       
       1600.7752             43.1207               8.6655       
        1608.779             42.8695               8.6183       
       1616.8229             42.6055               8.5715       
        1624.907             42.3276               8.525        
       1633.0316             42.0344               8.4789       
       1641.1967             41.7244               8.4332       
       1649.4027             41.3961               8.3878       
       1657.6497             41.0474               8.3428       
        1665.938             40.6759               8.2981       
       1674.2677             40.2791               8.2537       
        1682.639             39.8536               8.2097       
       1691.0522             39.3956               8.166        
       1699.5075             38.9003               8.1227       
        1708.005             38.3617               8.0781       
        1716.545             37.7723               8.0334       
       1725.1278             37.1225               7.989        
       1733.7534             36.3998               7.945        
       1742.4222             35.5869               7.9014       
       1751.1343             34.6597               7.858        
       1759.8899             33.5823               7.815        
       1768.6894             32.2981               7.7723       
       1777.5328             30.7091               7.7299       
       1786.4205             28.6218               7.6878       
       1795.3526              25.541               7.646        
       1804.3294             19.2952               7.6046       
       1808.8491             4.06674               7.5839       
        1809.551             3.74869               25.626       
        1813.351             17.8305               25.549       
       1822.4178             24.0826               25.369       
       1831.5299             26.5264               25.189       
       1840.6875             27.7107               25.011       
       1849.8909             28.0311               24.835       
       1859.1404             27.2913               24.659       
       1868.4361             23.2827               24.485       
       1870.9394             17.6545               24.439       
       1872.2607             17.6137               36.298       
       1877.7783             26.6817               36.144       
       1887.1672             31.0855               35.884       
        1896.603              33.678               35.625       
        1906.086             35.6113               35.369       
       1915.6165             37.1838               35.115       
       1925.1945             38.5216               34.862       
       1934.8205             39.6913               34.612       
       1944.4946             40.7328               34.363       
       1954.2171             41.6726               34.117       
       1963.9882             42.5289               33.872       
       1973.8081              43.315               33.628       
       1983.6772              44.041               33.386       
       1993.5955             44.7146               33.146       
       2003.5635             45.3419               32.907       
       2013.5813             45.9281               32.67        
       2023.6492             46.4771               32.436       
       2033.7675             46.9922               32.202       
       2043.9363             47.4762               31.971       
        2054.156             47.9314               31.742       
       2064.4268             48.3597               31.514       
       2074.7489             48.7627               31.288       
       2085.1227             49.1417               31.063       
       2095.5483             49.4977               30.84        
        2106.026             49.8314               30.619       
       2116.5562             50.1433                30.4        
       2127.1389             50.4338               30.182       
       2137.7746             50.7027               29.966       
       2148.4635             50.9498               29.752       
       2159.2058             51.1743               29.539       
       2170.0018             51.3749               29.328       
       2180.8519             51.5496               29.118       
       2191.7561             51.6957               28.91        
       2202.7149             51.8086               28.704       
       2213.7285             51.8817               28.499       
       2224.7971             51.9041               28.296       
       2235.9211             51.8573               28.094       
       2247.1007             51.7061               27.893       
       2258.3362             51.3704               27.695       
       2269.6279             50.5932               27.497       
       2278.6505             48.3982               27.341       
        2280.976             41.3917               27.301       
       2283.3493             48.4449               32.09        
       2292.3809              51.101               31.891       
       2303.8428             52.4327               31.641       
        2315.362             53.3017               31.393       
       2326.9388             53.9744               31.148       
       2338.5735             54.5346               30.904       
       2350.2664             55.0199               30.663       
       2362.0177             55.4489               30.417       
       2373.8278             55.8317               30.172       
        2385.697             56.1749               29.929       
       2397.6254             56.4813               29.696       
       2409.6136             56.7657               29.481       
       2421.6616             57.0327               29.27        
       2433.7699             57.2825               29.061       
       2445.9388             57.5145               28.85        
       2458.1685             57.7286               28.642       
       2470.4593             57.9246               28.436       
       2482.8116             58.1017               28.233       
       2495.2257             58.2584               28.033       
       2507.7018             58.3915               27.835       
       2520.2403             58.4954               27.639       
       2532.8415             58.5591               27.445       
       2545.5057             58.5592               27.253       
       2558.2333             58.4289               27.064       
       2571.0244             57.7597               26.876       
       2571.6555             57.6629               26.867       
       2578.1443             57.7438               28.665       
       2583.8796             58.4515               28.571       
        2596.799             59.1845               28.362       
       2609.7829             59.6478               28.154       
       2622.8319             60.0117               27.949       
        2635.946             60.3202               27.745       
       2649.1257             60.5917               27.544       
       2662.3714             60.8352               27.344       
       2675.6832             61.0555               27.146       
       2689.0617             61.2549               26.95        
        2702.507             61.4337               26.756       
       2716.0195             61.5963               26.578       
       2729.5996              61.747               26.402       
       2743.2476             61.8834               26.228       
       2756.9638             62.0023               26.057       
       2770.7486             62.0982               25.888       
       2784.6024              62.159               25.72        
       2798.5254             62.1531               25.554       
        2812.518             61.9324               25.39        
       2814.0455             61.8632               25.373       
       2825.1547             61.9917               26.383       
       2826.5806             62.0919               26.366       
       2840.7135             62.6619               26.201       
       2854.9171             63.0133               26.038       
       2869.1917              63.298               25.876       
       2883.5376              63.549               25.715       
       2897.9553             63.7792               25.556       
       2912.4451             63.9949               25.397       
       2927.0073             64.2001               25.239       
       2941.6424             64.3972               25.082       
       2956.3506             64.5879               24.926       
       2971.1323             64.7745               24.772       
        2985.988              64.961               24.619       
       3000.9179             65.1549               24.466       
       3015.9225             65.3159               24.291       
       3031.0021             65.4708               24.117       
       3046.1571             65.6203               23.944       
       3061.3879             65.7647               23.773       
       3076.6949             65.9045               23.603       
       3092.0783              66.04                23.434       
       3107.5387             66.1714               23.266       
       3123.0764              66.299               23.099       
       3138.6918             66.4231               22.934       
       3154.3853             66.5437               22.769       
       3170.1572              66.661               22.606       
        3186.008             66.7752               22.444       
        3201.938             66.8864               22.283       
       3217.9477             66.9948               22.123       
       3234.0374             67.1004               21.964       
       3250.2076             67.2033               21.807       
       3266.4587             67.3037               21.65        
        3282.791             67.4017               21.495       
       3299.2049             67.4973               21.34        
       3315.7009             67.5906               21.187       
       3332.2794             67.6819               21.035       
       3348.9408             67.7711               20.884       
       3365.6856             67.8581               20.733       
        3382.514             67.9429               20.583       
       3399.4265             68.0255               20.434       
       3416.4237             68.1062               20.286       
       3433.5058             68.1849               20.14        
       3450.6733             68.2617               19.994       
       3467.9267             68.3368               19.85        
       3485.2663             68.4102               19.707       
       3502.6927             68.4819               19.565       
       3520.2061             68.5521               19.424       
       3537.8072             68.6208               19.284       
       3555.4962              68.688               19.145       
       3573.2737             68.7538               19.007       
        3591.14              68.8184               18.871       
       3609.0957             68.8817               18.735       
       3627.1412             69.1474               18.597       
       3645.2769             69.2084               18.456       
       3663.5033             69.2674               18.316       
       3681.8208             69.3244               18.177       
       3700.2299             69.3798               18.04        
       3718.7311             69.4334               17.904       
       3737.3247             69.4855               17.769       
       3756.0114             69.6769               17.631       
       3774.7914             69.7259               17.493       
       3793.6654              69.773               17.357       
       3812.6337             69.8183               17.222       
       3831.6969             69.8618               17.088       
       3850.8554             69.9037               16.955       
       3870.1096             69.9441               16.823       
       3889.4602             69.9829               16.693       
       3908.9075             70.0204               16.564       
        3928.452             70.0565               16.436       
       3948.0943             70.0913               16.309       
       3967.8347             70.1248               16.184       
       3987.6739             70.1571               16.06        
        4055.024             70.6313               15.65        
        4334.821             70.8697               14.139       
        4633.924             71.1122               12.784       
        4953.664             71.1475               11.526       
        5295.467              71.145               10.392       
        5660.855             71.0404               9.3697       
        6051.453             70.8546               8.4516       
        6469.004              70.612               7.6347       
        6915.365             70.3157               6.9068       
        7392.525             69.9589               6.2574       
        7902.609             69.5221               5.6752       
        8447.89              68.9513               5.132        
        9030.794             68.1293               4.6283       
        9653.919             66.5592               4.1268       
        10002.66             64.5033               3.8823       
        10155.77             61.6346               3.7802       
        10196.59             58.2555               3.7538       
        10257.83             61.6606               10.324       
        10320.04             63.3883               10.184       
        10410.94             64.6451               9.985        
        11032.12             66.8651               8.8485       
        11313.12              66.594               8.4442       
        11486.28             65.4086               8.2142       
        11532.46             63.8067               8.1551       
        11601.72             65.5005               11.288       
        11774.88             67.0136               11.001       
        11793.34             67.0913               10.971       
        11857.8               67.302               10.868       
        12039.3              67.2878               10.589       
        12087.7              66.5917               10.516       
        12160.3              67.6405               12.074       
        12341.8              68.8404               11.804       
        12607.08             69.7737               11.43        
        13476.97             71.4875               10.319       
        14406.88              72.491               9.2845       
        15400.95             73.1546               8.343        
        16463.62             73.6002               7.4814       
        17599.61             73.8944               6.706        
        18813.98              74.085               6.0128       
        20112.15             74.2037               5.3947       
        21499.88             74.3309               4.8368       
        22983.38             74.3562               4.3382       
        24569.23             74.4178               3.8884       
        26264.5              74.3985               3.4838       
        28076.76             74.3669               3.0983       
        30014.05              74.297               2.7503       
        32085.02             74.2121               2.4435       
        34298.89             74.1179               2.1727       
        36665.51             74.0173               1.9334       
        39195.43             73.9116               1.7219       
        41899.92             73.8011               1.5346       
        44791.01             73.6848               1.3682       
        47881.59             73.5584               1.2184       
        51185.42             73.4168               1.0851       
        54717.21             73.2486              0.96347       
        58492.7              73.0295              0.85449       
        62528.7              72.7015              0.75806       
        66843.18             72.0009              0.67279       
        68134.5              71.5004              0.65025       
        69177.38             70.3996              0.63292       
        69455.48             69.0815              0.62842       
        69872.63             70.4134               3.2163       
        70915.5              71.6162               3.145        
        71455.36             71.9078               3.1091       
        76385.78             73.0529               2.7986       
        81656.4              73.5353               2.5097       
        87290.69             73.8178               2.2497       
        93313.74             74.0042               2.0139       
        99752.39             74.1261               1.7992       
        106635.3             74.2067               1.6076       
        113993.1             74.2592               1.4366       
        121858.7              74.292               1.2839       
        130266.9             74.3109               1.1476       
        139255.3             74.3475               1.0259       
        148864.0             74.3477              0.91402       
        159135.6              74.341              0.81445       
        170115.9             74.3299              0.72581       
        181853.9             74.3159              0.64687       
        194401.8               74.3               0.57657       
        207815.6              74.283              0.51396       
        222154.8             74.2654              0.45818       
        237483.5             74.2477               0.4085       
        253869.9             74.2302              0.36423       
        271386.9             74.2129              0.32479       
        290112.6              74.196              0.28963       
        310130.4             74.1795              0.25917       
        331529.4             74.1646              0.23293       
        354404.9             74.1511              0.20937       
        378858.8             74.1386               0.1882       
        405000.1             74.1271              0.16919       
        432945.1             74.1165              0.15211       
