# Yb
# Form Factors from Chantler Tables
# DOI: https://dx.doi.org/10.18434/T4HS32
# automatically retrived 2019-02-28 using URL https://physics.nist.gov/cgi-bin/ffast/ffast.pl

# For f_rel the second term, which is 3/5th of the Cromer-Liberman value, is used as suggested by Chantler.
# Real and imaginary part of the formfactors are: f'(E)=f1(E)+f_rel+f_NT and f''(E)=f2(E)
# see also original publication:  https://doi.org/10.1063/1.555974

# Z = 70
# f_rel = -0.7488 e/atom  (Relativistic correction estimate)
# f_NT = -0.015534 e/atom (Nuclear Thomson correction)


#        E (eV)            f1 (e/atom)          f2 (e/atom)     
         6.174               8.70177                0.0         
         6.2685              8.61958                0.0         
         6.2937              8.53448                0.0         
         6.3315               8.6115              0.15997       
         6.426               8.66995              0.16048       
         10.69               8.08034              0.24028       
        11.42761             7.90296              0.26322       
        12.21612             7.68974              0.28998       
        13.05903             7.43114              0.32108       
        13.9601              7.11351               0.3571       
        14.92335             6.71672              0.39875       
        15.95306             6.20942              0.44685       
        17.05382             5.53952              0.50232       
        18.23053             4.61228              0.56624       
        19.48844             3.33375              0.63982       
        20.83314             0.989324             0.72443       
        22.27063             -4.40734             0.82162       
         22.932              -11.2079             0.86864       
         23.283              -23.2927             0.89418       
        23.3766              -38.3698             0.90106       
         23.517              -21.8016              30.895       
        23.8073              -8.64846              29.627       
         23.868              -7.13978              29.371       
        25.45001              8.7862               23.655       
        27.20606             14.2828               18.939       
        29.08327             16.6838               15.192       
        31.09002             17.6344                12.3        
        33.23523             17.8325               10.127       
        35.52846             17.6392               8.5366       
        37.97993             17.2551               7.4086       
        40.60054             16.7932               6.6435       
        43.40198             16.3169               6.1631       
        46.39671             15.8609               5.9074       
        49.59809             15.4428               5.8318       
        53.02035             15.0639               5.9031       
        53.8295              14.9722               5.937        
        54.0459              14.9329               5.947        
        54.3705              14.9244               6.0019       
         55.182              14.8735               6.0455       
        56.67876              14.769               6.1379       
        60.58959              14.537               6.4395       
        64.77028             14.3639               6.8326       
        69.23942             14.2565               7.3074       
        74.01695             14.2383               7.856        
        79.12411             14.2782               8.4722       
        84.58368             14.4017               9.1509       
        90.41995             14.6183               9.8876       
        96.65893             14.9408               10.679       
         100.0               17.1539               11.101       
         100.5               17.1878               11.165       
        101.0025             17.2224               11.228       
       101.50751             17.2578               11.292       
       102.01505              17.294               11.356       
       102.52513              17.331               11.42        
       103.03775             17.3688               11.484       
       103.55294             17.4075               11.549       
        104.0707              17.447               11.614       
       104.59106             17.4874               11.679       
       105.11401             17.5286               11.745       
       105.63958             17.5708               11.811       
       106.16778             17.6138               11.877       
       106.69862             17.6578               11.943       
       107.23211             17.7027               12.01        
       107.76827             17.7485               12.077       
       108.30712             17.7954               12.144       
       108.84865             17.8432               12.211       
       109.39289             17.8921               12.279       
       109.93986              17.942               12.347       
       110.48956             17.9929               12.415       
       111.04201              18.045               12.483       
       111.59722             18.0981               12.552       
        112.1552             18.1524               12.621       
       112.71598             18.2078               12.69        
       113.27956             18.2644               12.759       
       113.84596             18.3222               12.829       
       114.41519             18.3813               12.899       
       114.98726             18.4416               12.969       
        115.5622             18.5032               13.039       
       116.14001             18.5662               13.11        
       116.72071             18.6305               13.18        
       117.30431             18.6962               13.251       
       117.89083             18.7634               13.323       
       118.48029             18.8325               13.381       
       119.07269             18.9028               13.41        
       119.66805             18.9727               13.438       
       120.26639             19.0423               13.466       
       120.86772             19.1115               13.494       
       121.47206             19.1804               13.521       
       122.07942             19.2489               13.548       
       122.68982             19.3172               13.575       
       123.30327             19.3852               13.601       
       123.91979             19.4528               13.627       
       124.53939             19.5202               13.653       
       125.16208             19.5873               13.679       
       125.78789             19.6541               13.704       
       126.41683             19.7206               13.729       
       127.04892             19.7869               13.753       
       127.68416             19.8529               13.777       
       128.32258             19.9186               13.801       
       128.96419              19.984               13.825       
       129.60902             20.0492               13.848       
       130.25706             20.1141               13.87        
       130.90835             20.1787               13.893       
       131.56289              20.243               13.915       
        132.2207             20.3071               13.937       
       132.88181             20.3708               13.958       
       133.54621             20.4343               13.979       
       134.21395             20.4974                14.0        
       134.88502             20.5602               14.02        
       135.55944             20.6227               14.04        
       136.23724             20.6849               14.06        
       136.91842             20.7467               14.079       
       137.60302             20.8082               14.098       
       138.29103             20.8693               14.116       
       138.98249              20.93                14.134       
        139.6774             20.9904               14.152       
       140.37579             21.0503               14.17        
       141.07766             21.1098               14.187       
       141.78305             21.1688               14.203       
       142.49197             21.2274               14.219       
       143.20443             21.2855               14.235       
       143.92045              21.343               14.251       
       144.64005             21.4001               14.266       
       145.36325             21.4566               14.281       
       146.09007             21.5125               14.295       
       146.82052             21.5677               14.309       
       147.55462             21.6223               14.323       
       148.29239             21.6763               14.336       
       149.03386             21.7295               14.348       
       149.77903              21.782               14.361       
       150.52792             21.8336               14.373       
       151.28056             21.8844               14.384       
       152.03696             21.9343               14.396       
       152.79715             21.9833               14.406       
       153.56113             22.0312               14.417       
       154.32894             22.0781               14.427       
       155.10058             22.1238               14.436       
       155.87609             22.1683               14.446       
       156.65547             22.2115               14.454       
       157.43875             22.2533               14.463       
       158.22594             22.2936               14.471       
       159.01707             22.3323               14.478       
       159.81215             22.3693               14.486       
       160.61121             22.4044               14.492       
       161.41427             22.4376               14.499       
       162.22134             22.4685               14.505       
       163.03245             22.4987               14.51        
       163.84761             22.5247               14.515       
       164.66685              22.548               14.52        
       165.49018             22.5681               14.525       
       166.31763             22.5849               14.528       
       167.14922             22.5979               14.532       
       167.98497             22.6067               14.535       
       168.82489             22.6109               14.538       
       169.66902             22.6099               14.54        
       170.51736              22.603               14.542       
       171.36995             22.5894               14.544       
        172.2268             22.5682               14.545       
       173.08793             22.5381               14.545       
       173.95337             22.4976               14.546       
       174.82314             22.4448               14.545       
       175.69726             22.3773               14.545       
       176.57574             22.2918               14.544       
       177.45862             22.1839               14.543       
       178.34591             22.0474               14.541       
       179.23764             21.8733               14.539       
       180.13383             21.6475               14.536       
        181.0345             21.3465               14.533       
       181.93967             20.9273               14.53        
       182.84937              20.296               14.526       
       183.76362             19.1799               14.522       
       184.68244              15.649               14.517       
       184.76613             14.5455               14.517       
       185.03387             14.7266                21.9        
       185.60585             18.9116               21.659       
       186.53388             21.1444               21.285       
       187.46655             22.3655               20.93        
       188.40388             23.1919               20.593       
        189.3459             23.7954               20.272       
       190.29263             24.2488               19.967       
       191.24409             24.5883               19.677       
       192.20031             24.8323               19.401       
       193.16131             24.9873               19.139       
       194.12712             25.0483               18.889       
       195.09776             24.9927               18.652       
       196.07325             24.7576               18.425       
       197.05361             24.1288               18.21        
       197.91478             21.9002               18.03        
       198.03888             20.3066               18.005       
       198.28522             22.0937               22.599       
       199.02907             24.7765               22.28        
       200.02422             26.1333               21.873       
       201.02434             26.9668               21.486       
       202.02946             27.5734               21.117       
       203.03961             28.0466               20.766       
       204.05481              28.429               20.431       
       205.07508             28.7451               20.116       
       206.10046             29.0112               19.819       
       207.13096             29.2382               19.539       
       208.16661             29.4338               19.275       
       209.20745             29.6038               19.025       
       210.25348             29.7524               18.789       
       211.30475             29.8831               18.565       
       212.36128             29.9985               18.354       
       213.42308             30.1008               18.153       
        214.4902             30.1918               17.962       
       215.56265             30.2727               17.781       
       216.64046             30.3448               17.609       
       217.72366             30.4088               17.445       
       218.81228             30.4655               17.289       
       219.90634             30.5158               17.144       
       221.00588             30.5614               17.007       
        222.1109             30.6032               16.878       
       223.22146             30.6421               16.756       
       224.33757             30.6786               16.642       
       225.45925             30.7131               16.533       
       226.58655             30.7462               16.43        
       227.71948             30.7781               16.333       
       228.85808              30.809               16.241       
       230.00237             30.8391               16.152       
       231.15238             30.8687               16.068       
       232.30814             30.8978               15.988       
       233.46969             30.9266               15.912       
       234.63703             30.9551               15.838       
       235.81022             30.9835               15.768       
       236.98927             31.0118                15.7        
       238.17422              31.04                15.635       
       239.36509             31.0681               15.573       
       240.56191             31.0963               15.512       
       241.76472             31.1245               15.454       
       242.97355             31.1527               15.398       
       244.18841              31.181               15.343       
       245.40936             31.2093               15.29        
        246.6364             31.2377               15.239       
       247.86959             31.2661               15.189       
       249.10893             31.2946               15.141       
       250.35448             31.3231               15.094       
       251.60625             31.3516               15.048       
       252.86428             31.3802               15.003       
        254.1286             31.4087               14.959       
       255.39925             31.4373               14.916       
       256.67624             31.4658               14.875       
       257.95962             31.4943               14.834       
       259.24942             31.5228               14.794       
       260.54567             31.5512               14.754       
        261.8484             31.5795               14.716       
       263.15764             31.6077               14.678       
       264.47343             31.6358               14.641       
       265.79579             31.6638               14.604       
       267.12477             31.6917               14.568       
        268.4604             31.7194               14.533       
        269.8027             31.7469               14.498       
       271.15171             31.7742               14.464       
       272.50747             31.8013               14.43        
       273.87001             31.8282               14.397       
       275.23936             31.8549               14.364       
       276.61556             31.8812               14.332       
       277.99863             31.9073                14.3        
       279.38863             31.9331               14.269       
       280.78557             31.9586               14.238       
        282.1895             31.9838               14.207       
       283.60044             32.0085               14.177       
       285.01845             32.0329               14.147       
       286.44354             32.0569               14.117       
       287.87576             32.0805               14.088       
       289.31514             32.1036               14.059       
       290.76171             32.1262               14.03        
       292.21552             32.1484               14.002       
        293.6766              32.17                13.974       
       295.14498              32.191               13.946       
       296.62071             32.2115               13.919       
       298.10381             32.2313               13.892       
       299.59433             32.2504               13.865       
        301.0923             32.2689               13.839       
       302.59776             32.2865               13.813       
       304.11075             32.3034               13.787       
        305.6313             32.3194               13.761       
       307.15946             32.3345               13.736       
       308.69526             32.3486               13.711       
       310.23873             32.3616               13.686       
       311.78993             32.3735               13.662       
       313.34888              32.384               13.638       
       314.91562             32.3932               13.614       
        316.4902             32.4009               13.59        
       318.07265             32.4068               13.567       
       319.66301             32.4109               13.544       
       321.26133             32.4128               13.521       
       322.86764             32.4122               13.499       
       324.48197             32.4089               13.477       
       326.10438             32.4022               13.455       
       327.73491             32.3917               13.433       
       329.37358             32.3764               13.412       
       331.02045             32.3552               13.391       
       332.67555             32.3265               13.37        
       334.33893              32.288               13.349       
       336.01062             32.2355               13.329       
       337.69068             32.1621               13.309       
       339.37913             32.0535               13.289       
       341.07602             31.8715               13.27        
        342.7814             31.4224               13.251       
       343.08435             31.2139               13.247       
       343.91562             31.2236               14.457       
       344.49531             31.5691               14.452       
       346.21779             31.9806               14.438       
       347.94888             32.1944               14.423       
       349.68862             32.3455               14.41        
       351.43706             32.4651               14.396       
       353.19425             32.5659               14.383       
       354.96022             32.6539               14.37        
       356.73502             32.7328               14.357       
        358.5187             32.8048               14.345       
       360.31129             32.8713               14.333       
       362.11285             32.9333               14.321       
       363.92341             32.9916               14.31        
       365.74303             33.0466               14.299       
       367.57174             33.0989               14.288       
        369.4096             33.1487               14.277       
       371.25665             33.1961               14.267       
       373.11293             33.2414               14.257       
        374.9785             33.2846               14.247       
       376.85339             33.3258               14.238       
       378.73766             33.3649               14.229       
       380.63135             33.4018               14.22        
        382.5345             33.4363               14.211       
       384.44718              33.468               14.203       
       386.36941             33.4962               14.195       
       388.30126             33.5199               14.187       
       390.24276             33.5371               14.179       
       392.19398             33.5435               14.172       
       394.15495             33.5272               14.164       
       396.12572             33.4144               14.157       
       396.15652             33.4093               14.157       
       397.24347             33.4318               14.481       
       398.10635             33.5488               14.479       
       400.09688             33.6822               14.474       
       402.09737              33.772               14.469       
       404.10785             33.8464               14.465       
       406.12839             33.9128               14.46        
       408.15904             33.9743               14.456       
       410.19983             34.0323               14.453       
       412.25083             34.0878               14.449       
       414.31208             34.1414               14.445       
       416.38364             34.1934               14.442       
       418.46556             34.2441               14.439       
       420.55789             34.2937               14.436       
       422.66068             34.3424               14.433       
       424.77398             34.3903               14.431       
       426.89785             34.4375               14.428       
       429.03234             34.4839               14.426       
        431.1775             34.5298               14.424       
       433.33339             34.5751               14.422       
       435.50006             34.6198               14.42        
       437.67756             34.6639               14.418       
       439.86595             34.7076               14.417       
       442.06528             34.7507               14.415       
        444.2756             34.7933               14.414       
       446.49698             34.8352               14.412       
       448.72947             34.8766               14.411       
       450.97311             34.9174               14.41        
       453.22798             34.9574               14.409       
       455.49412             34.9966               14.407       
       457.77159             35.0349               14.406       
       460.06045             35.0722               14.405       
       462.36075             35.1082               14.404       
       464.67255             35.1428               14.403       
       466.99592             35.1756               14.402       
        469.3309             35.2062               14.401       
       471.67755             35.2339               14.401       
       474.03594             35.2576                14.4        
       476.40612             35.2759               14.399       
       478.78815              35.286               14.398       
       481.18209              35.282               14.396       
        483.588              35.2493               14.395       
       486.00594             35.1189               14.394       
       486.46432             35.0492               14.394       
       487.93566             35.0796               14.907       
       488.43597             35.1748               14.907       
       490.87815              35.404               14.907       
       493.33254             35.5389               14.907       
        495.7992             35.6457               14.906       
        498.2782              35.739               14.906       
       500.76959             35.8242               14.905       
       503.27344             35.9042               14.905       
        505.7898             35.9805               14.904       
       508.31875              36.054               14.903       
       510.86035             36.1255               14.902       
       513.41465             36.1953               14.901       
       515.98172             36.2638               14.899       
       518.56163             36.3313               14.898       
       521.15444             36.3979               14.896       
       523.76021             36.4638               14.894       
       526.37901              36.529               14.892       
       529.01091             36.5938               14.89        
       531.65596             36.6581               14.887       
       534.31424             36.7221               14.885       
       536.98581             36.7857               14.882       
       539.67074             36.8491               14.879       
        542.3691             36.9123               14.875       
       545.08094             36.9752               14.871       
       547.80635              37.038               14.867       
       550.54538             37.1006               14.863       
        553.2981              37.163               14.859       
        556.0646             37.2514               14.854       
       558.84492             37.3137               14.849       
       561.63914             37.3758               14.843       
       564.44734             37.4378               14.838       
       567.26958             37.4997               14.831       
       570.10592             37.5615               14.825       
       572.95645             37.6232               14.818       
       575.82123             37.6848               14.811       
       578.70034             37.7463               14.804       
       581.59384             37.8077               14.796       
       584.50181             37.8691               14.788       
       587.42432             37.9303               14.78        
       590.36144             37.9915               14.771       
       593.31325             38.0525               14.762       
       596.27982             38.1187               14.752       
       599.26122             38.1795               14.742       
       602.25752             38.2402               14.732       
       605.26881             38.3008               14.721       
       608.29515             38.3613               14.71        
       611.33663             38.4216               14.699       
       614.39331             38.4818               14.687       
       617.46528             38.5419               14.675       
        620.5526             38.6018               14.662       
       623.65537             38.6616               14.649       
       626.77364             38.7213               14.636       
       629.90751             38.7807               14.622       
       633.05705             38.8401               14.608       
       636.22234             38.8992               14.594       
       639.40345             38.9582               14.579       
       642.60046             39.0169               14.563       
       645.81347             39.0755               14.548       
       649.04253             39.1339               14.532       
       652.28775             39.1921               14.515       
       655.54919             39.2501               14.498       
       658.82693             39.3078               14.481       
       662.12107             39.3654               14.463       
       665.43167             39.4226               14.445       
       668.75883             39.4797               14.426       
       672.10262             39.5365               14.408       
       675.46314              39.593               14.388       
       678.84045             39.6493               14.369       
       682.23466             39.7052               14.348       
       685.64583             39.7609               14.328       
       689.07406             39.8163               14.307       
       692.51943             39.8715               14.286       
       695.98202             39.9263               14.264       
       699.46194             39.9808               14.242       
       702.95924             40.0349               14.22        
       706.47404             40.0888               14.197       
       710.00641             40.1423               14.173       
       713.55644             40.1954               14.15        
       717.12423             40.2482               14.126       
       720.70985             40.3007               14.102       
        724.3134             40.3528               14.077       
       727.93496             40.4045               14.052       
       731.57464             40.4558               14.026       
       735.23251             40.5068                14.0        
       738.90867             40.5573               13.974       
       742.60322             40.6075               13.948       
       746.31623             40.6572               13.921       
       750.04781             40.7065               13.893       
       753.79805             40.7554               13.866       
       757.56704             40.8038               13.838       
       761.35488             40.8518               13.809       
       765.16165             40.8993               13.78        
       768.98746             40.9463               13.751       
        772.8324             40.9928               13.721       
       776.69656             41.0388               13.691       
       780.58004             41.0843               13.661       
       784.48294             41.1293               13.63        
       788.40536             41.1737               13.599       
       792.34738             41.2176               13.568       
       796.30912              41.261               13.536       
       800.29067             41.3039               13.504       
       804.29212             41.3461               13.472       
       808.31358             41.3878               13.44        
       812.35515              41.429               13.407       
       816.41693             41.4695               13.373       
       820.49901             41.5095               13.34        
        824.6015             41.5488               13.306       
       828.72451             41.5875               13.272       
       832.86813             41.6255               13.237       
       837.03248             41.6628               13.202       
       841.21764             41.6995               13.167       
       845.42373             41.7355               13.131       
       849.65084             41.7708               13.096       
        853.8991             41.8053               13.06        
       858.16859             41.8392               13.024       
       862.45944             41.8724               12.987       
       866.77173             41.9049               12.951       
       871.10559             41.9367               12.914       
       875.46112             41.9677               12.878       
       879.83843             41.9981               12.841       
       884.23762             42.0277               12.804       
       888.65881             42.0565               12.766       
        893.1021             42.0847               12.729       
       897.56761             42.1121               12.691       
       902.05545             42.1388               12.654       
       906.56573             42.1648               12.616       
       911.09856              42.19                12.578       
       915.65405             42.2144               12.54        
       920.23232             42.2382               12.503       
       924.83348             42.2611               12.465       
       929.45765             42.2834               12.426       
       934.10494             42.3049               12.388       
       938.77546             42.3256               12.35        
       943.46934             42.3456               12.312       
       948.18668             42.3649               12.274       
       952.92762             42.3834               12.235       
       957.69226             42.4012               12.197       
       962.48072             42.4182               12.159       
       967.29312             42.4345               12.12        
       972.12959             42.4501               12.082       
       976.99023             42.4649               12.044       
       981.87519              42.479               12.006       
       986.78456             42.4924               11.967       
       991.71848             42.5051               11.929       
       996.67708             42.5171               11.891       
       1001.6605             42.5334               11.84        
       1006.6688             42.5528               11.765       
       1011.7021             42.5643               11.69        
       1016.7606             42.5695               11.616       
       1021.8444             42.5694               11.543       
       1026.9536             42.5649               11.47        
       1032.0884             42.5578               11.397       
       1037.2489             42.5458               11.326       
       1042.4351             42.5305               11.255       
       1047.6473             42.5121               11.184       
       1052.8855             42.4908               11.114       
       1058.1499             42.4667               11.045       
       1063.4407             42.4399               10.976       
       1068.7579             42.4105               10.907       
       1074.1017             42.3786               10.84        
       1079.4722             42.3441               10.772       
       1084.8695             42.3071               10.706       
       1090.2939             42.2676               10.64        
       1095.7454             42.2256               10.574       
       1101.2241             42.1812               10.509       
       1106.7302             42.1343               10.444       
       1112.2639             42.0849               10.38        
       1117.8252              42.033               10.317       
       1123.4143             41.9785               10.254       
       1129.0314             41.9214               10.191       
       1134.6765             41.8617               10.129       
       1140.3499             41.7994               10.068       
       1146.0517             41.7343               10.007       
       1151.7819             41.6664               9.946        
       1157.5408             41.5958               9.8859       
       1163.3285             41.5222               9.8263       
       1169.1452             41.4456               9.7672       
       1174.9909              41.366               9.7085       
       1180.8659             41.2832               9.6502       
       1186.7702             41.1972               9.5925       
        1192.704             41.1064               9.5351       
       1198.6676             41.0136               9.4783       
       1204.6609             40.9172               9.4218       
       1210.6842             40.8172               9.3658       
       1216.7376             40.7133               9.3103       
       1222.8213             40.6055               9.2551       
       1228.9354             40.4935               9.2004       
       1235.0801             40.3772               9.1462       
       1241.2555             40.2564               9.0923       
       1247.4618              40.131               9.0389       
       1253.6991             40.0006               8.9858       
       1259.9676             39.8652               8.9332       
       1266.2674             39.7243               8.881        
       1272.5988             39.5778               8.8292       
       1278.9618             39.4254               8.7778       
       1285.3566             39.2667               8.7268       
       1291.7833             39.1014               8.6761       
       1298.2423             38.9292               8.6259       
       1304.7335             38.7495               8.576        
       1311.2571              38.562               8.5266       
       1317.8134             38.3662               8.4775       
       1324.4025             38.1614               8.4287       
       1331.0245             37.9471               8.3804       
       1337.6796             37.7227               8.3324       
        1344.368             37.4873               8.2848       
       1351.0899             37.2401               8.2375       
       1357.8453             36.9801               8.1906       
       1364.6345             36.7064               8.1441       
       1371.4577             36.4177               8.0979       
        1378.315             36.1126               8.0509       
       1385.2066             35.7894               8.0037       
       1392.1326             35.4463               7.9568       
       1399.0933             35.0812               7.9103       
       1406.0887             34.6916               7.8641       
       1413.1192             34.2747               7.8183       
       1420.1848              33.827               7.7728       
       1427.2857             33.3443               7.7277       
       1434.4221             32.8216               7.6829       
       1441.5942             32.2526               7.6385       
       1448.8022             31.6294               7.5944       
       1456.0462             30.9419               7.5506       
       1463.3265              30.178               7.5072       
       1470.6431             29.3172               7.4641       
       1477.9963             28.3353               7.4213       
       1485.3863             27.1953               7.3788       
       1492.8132             25.8385               7.3366       
       1500.2773             24.1652               7.2948       
       1507.7787             21.9805               7.2533       
       1515.3176             18.8094               7.212        
       1522.8942             12.7485               7.1711       
       1527.5616             -6.16539              7.1462       
       1528.0383             -6.5087               26.615       
       1530.5086             8.46563               26.549       
       1538.1612             16.3279               26.345       
        1545.852             19.1031               26.144       
       1553.5812              20.354               25.943       
       1561.3491             20.5113               25.745       
       1569.1559             19.0375               25.548       
       1575.8114             9.29434               25.382       
       1576.7887             9.24297               38.098       
       1577.0017             10.7459               38.09        
       1584.8867             22.0634               37.793       
       1592.8111             25.7088               37.499       
       1600.7752             28.1835               37.206       
        1608.779             30.1187               36.916       
       1616.8229             31.7298               36.629       
        1624.907             33.1192               36.343       
       1633.0316             34.3448               36.06        
       1641.1967             35.4429               35.779       
       1649.4027             36.4381               35.501       
       1657.6497             37.3481               35.225       
        1665.938             38.1859               34.951       
       1674.2677             38.9614               34.679       
        1682.639             39.6825               34.41        
       1691.0522             40.3554               34.142       
       1699.5075             40.9853               33.877       
        1708.005             41.5763               33.614       
        1716.545             42.1319               33.354       
       1725.1278              42.655               33.095       
       1733.7534             43.1481               32.838       
       1742.4222             43.6134               32.584       
       1751.1343             44.0524               32.331       
       1759.8899             44.4668               32.081       
       1768.6894             44.8578               31.832       
       1777.5328             45.2264               31.586       
       1786.4205             45.5733               31.342       
       1795.3526             45.8993               31.099       
       1804.3294             46.2047               30.859       
        1813.351             46.4896               30.62        
       1822.4178             46.7541               30.384       
       1831.5299             46.9979               30.149       
       1840.6875             47.2202               29.916       
       1849.8909             47.4201               29.686       
       1859.1404             47.5958               29.457       
       1868.4361              47.745               29.23        
       1877.7783              47.864               29.004       
       1887.1672             47.9476               28.781       
        1896.603             47.9874               28.559       
        1906.086             47.9698               28.339       
       1915.6165             47.8704               28.121       
       1925.1945             47.6397               27.905       
       1934.8205             47.1503               27.69        
       1944.4946             45.8346               27.477       
       1947.5382             44.6174               27.411       
       1952.0618             44.6759               32.118       
       1954.2171             45.7658               32.058       
       1963.9882             47.8151               31.786       
       1973.8081             48.8564               31.517       
       1983.6772             49.6011               31.25        
       1993.5955              50.196               30.985       
       2003.5635             50.6968               30.722       
       2013.5813              51.131               30.461       
       2023.6492             51.5135               30.202       
       2033.7675              51.853               29.946       
       2043.9363             52.1534               29.692       
        2054.156             52.4207               29.461       
       2064.4268             52.6687               29.237       
       2074.7489              52.897               29.016       
       2085.1227             53.1051               28.799       
       2095.5483             53.2923               28.584       
        2106.026             53.4572               28.373       
       2116.5562             53.5967               28.164       
       2127.1389             53.7051               27.958       
       2137.7746             53.7715               27.755       
       2148.4635             53.7716               27.554       
       2159.2058             53.6356               27.356       
       2170.0018             52.9164               27.161       
        2170.436             52.8293               27.153       
       2175.5642             52.9028               28.982       
       2180.8519             53.6916               28.875       
       2191.7561             54.4223               28.658       
       2202.7149             54.8883               28.443       
       2213.7285             55.2548               28.23        
       2224.7971             55.5658               28.02        
       2235.9211             55.8396               27.812       
       2247.1007             56.0852               27.607       
       2258.3362             56.3078               27.404       
       2269.6279             56.5101               27.203       
        2280.976             56.6927               27.005       
       2292.3809             56.8603               26.821       
       2303.8428              57.017               26.64        
        2315.362             57.1615               26.461       
       2326.9388             57.2923               26.284       
       2338.5735             57.4073               26.11        
       2350.2664             57.5023               25.938       
       2362.0177              57.569               25.768       
       2373.8278             57.5888                25.6        
        2385.697             57.5021               25.434       
       2393.1119              57.262               25.331       
       2397.6254             56.4412               25.27        
       2403.0879             57.3875               26.372       
       2409.6136             57.7872               26.28        
       2421.6616             58.2101               26.114       
       2433.7699             58.5158               25.95        
       2445.9388             58.7724               25.786       
       2458.1685             59.0011               25.625       
       2470.4593             59.2111               25.465       
       2482.8116             59.4075               25.306       
       2495.2257             59.5935               25.148       
       2507.7018             59.7708               24.992       
       2520.2403             59.9408               24.837       
       2532.8415             60.1056               24.685       
       2545.5057             60.2653               24.53        
       2558.2333             60.4194               24.375       
       2571.0244             60.5687               24.221       
       2583.8796             60.7135               24.068       
        2596.799             60.8544               23.916       
       2609.7829             60.9915               23.766       
       2622.8319             61.1252               23.616       
        2635.946             61.2558               23.468       
       2649.1257             61.3833               23.321       
       2662.3714             61.5081               23.174       
       2675.6832             61.6302               23.029       
       2689.0617             61.7499               22.884       
        2702.507             61.8672               22.74        
       2716.0195             61.9822               22.597       
       2729.5996             62.0951               22.455       
       2743.2476             62.2059               22.314       
       2756.9638             62.3149               22.174       
       2770.7486             62.4219               22.035       
       2784.6024             62.5273               21.896       
       2798.5254             62.6309               21.758       
        2812.518             62.7331               21.621       
       2826.5806             62.8338               21.484       
       2840.7135             62.9327               21.347       
       2854.9171             63.0297               21.21        
       2869.1917             63.1251               21.074       
       2883.5376             63.2191               20.939       
       2897.9553             63.3116               20.805       
       2912.4451             63.4028               20.671       
       2927.0073              63.493               20.538       
       2941.6424             63.5823               20.406       
       2956.3506             63.6712               20.275       
       2971.1323             63.7602               20.145       
        2985.988             63.8504               20.016       
       3000.9179             63.9454               19.887       
       3015.9225             64.0414               19.743       
       3031.0021             64.1313                19.6        
       3046.1571             64.2174               19.458       
       3061.3879             64.5182               19.315       
       3076.6949             64.5976               19.168       
       3092.0783             64.6741               19.023       
       3107.5387             64.7478               18.879       
       3123.0764              64.819               18.736       
       3138.6918             64.8878               18.593       
       3154.3853             65.0964               18.452       
       3170.1572             65.1611               18.308       
        3186.008             65.2232               18.165       
        3201.938             65.2829               18.023       
       3217.9477             65.3402               17.882       
       3234.0374             65.3954               17.743       
       3250.2076             65.4485               17.606       
       3266.4587             65.4997               17.469       
        3282.791              65.549               17.334       
       3299.2049             65.5966                17.2        
       3315.7009             65.6425               17.067       
       3332.2794             65.6868               16.935       
       3348.9408             65.7295               16.805       
       3365.6856             65.7708               16.675       
        3382.514             65.8106               16.547       
       3399.4265             65.8491               16.42        
       3416.4237             65.8863               16.294       
       3433.5058             65.9222               16.17        
       3450.6733             65.9569               16.046       
       3467.9267             65.9904               15.924       
       3485.2663             66.0228               15.802       
       3502.6927             66.0541               15.68        
       3520.2061             66.0843               15.56        
       3537.8072             66.1134               15.44        
       3555.4962             66.1415               15.322       
       3573.2737             66.1686               15.205       
        3591.14              66.1948               15.089       
       3609.0957              66.22                14.974       
       3627.1412             66.2443               14.86        
       3645.2769             66.2678               14.747       
       3663.5033             66.2904               14.635       
       3681.8208             66.3122               14.524       
       3700.2299             66.3332               14.415       
       3718.7311             66.3535               14.306       
       3737.3247             66.3731               14.197       
       3756.0114              66.392               14.089       
       3774.7914             66.4102               13.983       
       3793.6654             66.4276               13.877       
       3812.6337             66.4445               13.772       
       3831.6969             66.4608               13.668       
       3850.8554             66.4764               13.565       
       3870.1096             66.4915               13.463       
       3889.4602             66.5061               13.362       
       3908.9075             66.6298               13.26        
        3928.452             66.6439               13.156       
       3948.0943             66.6571               13.054       
       3967.8347             66.6694               12.952       
       3987.6739             66.6808               12.851       
        4055.024             67.1293               12.519       
        4334.821             67.1246               11.292       
        4633.924             67.0963               10.172       
        4953.664             66.9694               9.1701       
        5295.467             66.7626               8.2727       
        5660.855             66.5036               7.4733       
        6051.453             66.1931               6.7601       
        6469.004             65.8226               6.1228       
        6915.365             65.3663               5.5324       
        7392.525             64.7554               4.9914       
        7902.609             63.8684               4.5094       
        8447.89              62.2694               4.0808       
        8764.728             60.1186               3.8563       
        8898.882             57.1931               3.7678       
        8934.656             53.7535               3.7409       
        8988.318              57.217               10.431       
        9030.794             58.6884               10.321       
        9122.472              60.243               10.089       
        9653.919             62.2929               8.9588       
        9778.636             62.0963               8.7436       
        9928.309             60.9185               8.5005       
        9968.222             59.2549               8.4382       
        10028.09             61.0691               11.721       
        10177.76             62.7204               11.387       
        10276.67             63.1439               11.176       
        10320.04             63.2436               11.086       
        10433.97             63.1156               10.854       
        10475.91             62.4005               10.772       
        10538.83             63.4667               12.356       
        10696.13             64.6852               12.066       
        11032.12             65.9637               11.498       
        11793.34             67.5511               10.372       
        12607.08             68.5201               9.3393       
        13476.97             69.1784               8.3938       
        14406.88             69.6219               7.5242       
        15400.95             69.9154               6.7398       
        16463.62             70.1045               6.0368       
        17599.61              70.22                5.4096       
        18813.98             70.3448               4.8427       
        20112.15             70.3981               4.3363       
        21499.88             70.4166               3.879        
        22983.38             70.3806               3.4684       
        24569.23             70.3291               3.104        
        26264.5              70.2721               2.7802       
        28076.76             70.2074               2.4723       
        30014.05             70.1192               2.1945       
        32085.02             70.0208               1.9495       
        34298.89             69.9157               1.7332       
        36665.51             69.8048               1.5421       
        39195.43             69.6878               1.3727       
        41899.92             69.5608               1.2204       
        44791.01             69.4188               1.0847       
        47881.59             69.2508              0.96081       
        51185.42             69.0346              0.85078       
        54717.21             68.7183              0.75329       
        58492.7               68.089              0.66748       
        60105.65              67.437               0.6355       
        61025.64             66.3087              0.61835       
        61270.97             64.9576               0.6139       
        61638.96             66.3231               3.2671       
        62528.7              67.5338               3.196        
        62558.94             67.5565               3.1936       
        66843.18             68.9414               2.8776       
        71455.36             69.4756               2.5819       
        76385.78             69.7851               2.3152       
        81656.4              69.9894               2.0735       
        87290.69             70.1221               1.8505       
        93313.74             70.2094               1.6518       
        99752.39             70.2663               1.4746       
        106635.3             70.3022               1.3166       
        113993.1              70.323               1.1757       
        121858.7             70.3335                1.05        
        130266.9             70.3634              0.93416       
        139255.3              70.357              0.83084       
        148864.0             70.3456              0.73901       
        159135.6              70.331               0.6574       
        170115.9             70.3144              0.58485       
        181853.9             70.2967              0.52036       
        194401.8             70.2783              0.46302       
        207815.6             70.2598              0.41203       
        222154.8             70.2414              0.36668       
        237483.5             70.2234              0.32635       
        253869.9             70.2059              0.29048       
        271386.9             70.1888              0.25909       
        290112.6             70.1732              0.23212       
        310130.4             70.1589              0.20797       
        331529.4             70.1457              0.18635       
        354404.9             70.1335              0.16699       
        378858.8             70.1223              0.14965       
        405000.1             70.1119              0.13412       
        432945.1             70.1023               0.1202       
