# Zn
# Form Factors from Chantler Tables
# DOI: https://dx.doi.org/10.18434/T4HS32
# automatically retrived 2019-02-28 using URL https://physics.nist.gov/cgi-bin/ffast/ffast.pl

# For f_rel the second term, which is 3/5th of the Cromer-Liberman value, is used as suggested by Chantler.
# Real and imaginary part of the formfactors are: f'(E)=f1(E)+f_rel+f_NT and f''(E)=f2(E)
# see also original publication:  https://doi.org/10.1063/1.555974

# Z = 30
# f_rel = -0.0954 e/atom  (Relativistic correction estimate)
# f_NT = -0.0075516 e/atom (Nuclear Thomson correction)


#        E (eV)            f1 (e/atom)          f2 (e/atom)     
         7.938               1.89392                0.0         
         8.0595              1.58428                0.0         
         8.0919              1.24074                0.0         
         8.1405              1.56676              0.66117       
         8.262               1.83711              0.67285       
         10.69               2.18614              0.91642       
        11.42761             2.18313              0.99609       
        12.21612             2.17165               1.0846       
        13.05903             2.15396               1.1832       
        13.9601              2.13164               1.293        
        14.92335             2.10599               1.4153       
        15.95306             2.07822               1.5516       
        17.05382             2.04961               1.7033       
        18.23053             2.02156               1.8717       
        19.48844             1.99571               2.0584       
        20.83314             1.97391               2.2648       
        22.27063             1.95833               2.4922       
        23.8073              1.95148               2.7417       
        25.45001              1.9198               3.0145       
        27.20606             1.93967               3.3112       
        29.08327             1.97834               3.6322       
        31.09002              2.0404               3.9774       
        33.23523             2.13183               4.3457       
        35.52846             2.25682               4.7295       
        37.97993             2.41567               5.1247       
        40.60054              2.609                5.5282       
        43.40198             2.83737               5.9369       
        46.39671             3.10102               6.3475       
        49.59809             3.39971               6.7568       
        53.02035             3.73279               7.1617       
        56.67876             4.09943               7.5593       
        60.58959             4.50246               7.9471       
        64.77028             4.96402               8.3109       
        69.23942             5.42968               8.6353       
        74.01695             5.88267               8.9287       
        79.12411             6.28468               9.1879       
        84.58368              6.3847               9.4104       
         84.868              6.35349               9.4205       
         86.167               5.9048               9.4654       
        86.5134              5.22864               9.4769       
         87.033              6.04111               10.902       
         88.332              6.84154               10.895       
        90.41995             7.44473               10.884       
        96.65893             8.49813               10.847       
        103.3284             9.27197               10.845       
        110.4581              9.9677               10.871       
        118.0797             10.6284               10.904       
        126.2272             11.2517               10.936       
        133.182              11.6453               10.958       
        134.9368             11.6353               10.963       
        135.2205             11.6068               10.964       
        135.7641              11.414               10.965       
        136.5795             11.7133               11.429       
        138.618              12.0794               11.441       
        144.2475             12.7012               11.472       
        154.2005             13.6448               11.437       
        164.8404             14.4977               11.07        
        176.2144             15.2357               10.696       
        188.3732             15.8898               10.32        
        201.3709             16.4779               9.9442       
        215.2655             17.0117               9.5693       
        230.1188             17.4994               9.1959       
        245.997              17.9464               8.8239       
        262.9708              18.359               8.4529       
        281.1158             18.7336               8.0824       
        300.5128             19.0739               7.7122       
        321.2482              19.38                7.3424       
        343.4143             19.6517               6.9736       
        367.1099             19.8882               6.6052       
        392.4405              20.086               6.2364       
        419.5189             20.2402               5.8703       
        448.4657             20.3509               5.5099       
        479.4098             20.4139               5.1581       
        512.4891             20.4261               4.8174       
        547.8508             20.3829               4.4899       
        585.6525             20.2777               4.177        
        626.0625             20.0994               3.8799       
        669.2609             19.8305               3.5993       
        715.4399             19.4417               3.3356       
        764.8052             18.8803               3.0889       
        817.5768             18.0422               2.859        
        873.9896             16.6852               2.6453       
         900.0               17.3931               2.5564       
         904.5                17.263               2.5415       
        909.0225             17.1262               2.5268       
       913.56761             16.9821               2.5121       
       918.13545             16.8299               2.4976       
       922.72613              16.669               2.4831       
       927.33976             16.4984               2.4687       
       931.97646             16.3171               2.4544       
       936.63634             16.1239               2.4401       
       941.31952             15.9173               2.426        
       946.02612             15.6957               2.4119       
       950.75625             15.4569               2.3979       
       955.51003             15.1986               2.384        
       960.28758             14.9176               2.3702       
       965.08902             14.6101               2.3565       
       969.91446             14.2713               2.3428       
       974.76404             13.8946               2.3292       
       979.63786             13.4716               2.3157       
       984.53605             12.9904               2.3023       
       989.45873             12.4339               2.289        
       994.40602             11.7757               2.2757       
       999.37805             10.9729               2.2625       
       1004.3749             9.94316               2.2458       
       1009.3968             8.51478               2.2287       
       1014.4438             6.15159               2.2118       
        1019.516             -5.07956              2.195        
        1019.629             -8.22555              2.1946       
       1019.7711             -8.40332              12.572       
       1024.6136              5.3677               12.469       
       1029.7367             7.32086               12.362       
       1034.8853             7.99378               12.256       
       1040.0598             7.35582               12.151       
       1042.7279             1.91437               12.098       
        1042.872             1.85341               17.202       
       1045.2601             7.97659               17.134       
       1050.4864             10.5445               16.987       
       1055.7388             11.9953               16.842       
       1061.0175              13.075               16.697       
       1066.3226             13.9517               16.554       
       1071.6542             14.6953               16.412       
       1077.0125             15.3428               16.272       
       1082.3975             15.9165               16.132       
       1087.8095             16.4313               15.994       
       1093.2486             16.8974               15.857       
       1098.7148             17.3222               15.722       
       1104.2084             17.7116               15.587       
       1109.7294             18.0696               15.454       
       1115.2781             18.3997               15.321       
       1120.8545             18.7044               15.19        
       1126.4587             18.9856               15.06        
        1132.091             19.2447               14.932       
       1137.7515             19.4825               14.804       
       1143.4402             19.6995               14.677       
       1149.1574             19.8953               14.552       
       1154.9032             20.0688               14.427       
       1160.6777             20.2177               14.304       
       1166.4811             20.3376               14.182       
       1172.3135             20.4199               14.061       
       1178.1751             20.4469               13.941       
        1184.066             20.3734               13.822       
       1189.9863             20.0079               13.703       
       1192.4542             19.4199               13.655       
       1194.7459              19.467               15.44        
       1195.9362             19.9205               15.416       
       1201.9159             20.8465               15.294       
       1207.9255             21.3413               15.174       
       1213.9651             21.7172               15.055       
        1220.035             22.0337               14.937       
       1226.1351              22.313               14.82        
       1232.2658             22.5663               14.704       
       1238.4271             22.7996               14.589       
       1244.6193              23.017               14.474       
       1250.8424             23.2211               14.361       
       1257.0966             23.4138               14.249       
       1263.3821             23.5968               14.139       
        1269.699             23.7712               14.029       
       1276.0475             23.9379               13.921       
       1282.4277             24.0975               13.813       
       1288.8399             24.2507               13.706       
        1295.284             24.3978               13.601       
       1301.7605             24.5392               13.496       
       1308.2693             24.6754               13.392       
       1314.8106             24.8065               13.289       
       1321.3847             24.9329               13.187       
       1327.9916             25.0546               13.086       
       1334.6316             25.1727               12.989       
       1341.3047             25.2874               12.892       
       1348.0112             25.3986               12.796       
       1354.7513             25.5066               12.701       
        1361.525             25.6115               12.607       
       1368.3327             25.7138               12.515       
       1375.1743             25.8134               12.423       
       1382.0502             25.9104               12.333       
       1388.9605              26.005               12.243       
       1395.9053             26.0973               12.154       
       1402.8848             26.1872               12.065       
       1409.8992              26.275               11.978       
       1416.9487             26.3606               11.891       
       1424.0335             26.4442               11.805       
       1431.1536             26.5257               11.719       
       1438.3094             26.6054               11.634       
       1445.5009             26.6833               11.55        
       1452.7284             26.7594               11.467       
       1459.9921             26.8337               11.385       
        1467.292             26.9065               11.303       
       1474.6285             26.9776               11.222       
       1482.0016             27.0472               11.141       
       1489.4117             27.1153               11.061       
       1496.8587              27.182               10.982       
        1504.343             27.2473               10.903       
       1511.8647             27.3113               10.825       
        1519.424             27.3741               10.748       
       1527.0212             27.4356               10.671       
       1534.6563              27.496               10.595       
       1542.3295             27.5554               10.52        
       1550.0412             27.6139               10.445       
       1557.7914             27.6711               10.369       
       1565.5804              27.727               10.294       
       1573.4083             27.7815               10.219       
       1581.2753             27.8347               10.144       
       1589.1817             27.8868               10.07        
       1597.1276             27.9377               9.9972       
       1605.1132             27.9874               9.9245       
       1613.1388             28.0361               9.8523       
       1621.2045             28.0838               9.7807       
       1629.3105             28.1304               9.7092       
       1637.4571             28.1761               9.6375       
       1645.6443             28.2207               9.5663       
       1653.8726             28.2644               9.4957       
       1662.1419             28.3071               9.4256       
       1670.4526             28.3489               9.3561       
       1678.8049             28.3898               9.287        
       1687.1989             28.4298               9.2185       
       1695.6349              28.469               9.1505       
       1704.1131             28.5073               9.083        
       1712.6337             28.5449               9.016        
       1721.1968             28.5816               8.9495       
       1729.8028             28.6175               8.8835       
       1738.4518             28.6527               8.818        
       1747.1441             28.6872               8.753        
       1755.8798             28.7209               8.6884       
       1764.6592             28.7539               8.6244       
       1773.4825             28.7862               8.5608       
       1782.3499             28.8179               8.4977       
       1791.2617             28.8489               8.435        
        1800.218             28.8793               8.3728       
       1809.2191              28.909               8.3111       
       1818.2652             28.9381               8.2499       
       1827.3565             28.9666               8.1891       
       1836.4933             28.9946               8.1287       
       1845.6757              29.022               8.0688       
       1854.9041             29.0488               8.0093       
       1864.1786              29.075               7.9503       
       1873.4995             29.1008               7.8917       
        1882.867              29.126               7.8335       
       1892.2814             29.1507               7.7758       
       1901.7428              29.175               7.7185       
       1911.2515             29.1987               7.6616       
       1920.8077              29.222               7.6052       
       1930.4118             29.2448               7.5491       
       1940.0638             29.2672               7.4935       
       1949.7642             29.2892               7.4383       
        1959.513             29.3107               7.3835       
       1969.3105             29.3318               7.3291       
       1979.1571             29.3526               7.2751       
       1989.0529              29.373               7.2216       
       1998.9981              29.393               7.1684       
       2008.9931             29.4126               7.1156       
       2019.0381              29.432               7.0632       
       2029.1333              29.451               7.0112       
        2039.279             29.4697               6.9596       
       2049.4754             29.6021               6.906        
       2059.7227             29.6199               6.8528       
       2070.0213             29.6373                6.8         
       2080.3714             29.6541               6.7476       
       2090.7733             29.7278               6.695        
       2101.2272             29.7436               6.6423       
       2111.7333             29.7589                6.59        
        2122.292             29.7737               6.538        
       2132.9034             29.7879               6.4865       
        2143.568             29.8017               6.4354       
       2154.2858             29.8149               6.3847       
       2165.0572             29.8278               6.3345       
       2175.8825             29.8401               6.2846       
       2186.7619             29.8521               6.2351       
       2197.6957             29.8637               6.186        
       2208.6842             29.8748               6.1373       
       2219.7276             29.8856               6.089        
       2230.8263              29.896               6.0411       
       2241.9804             29.9061               5.9935       
       2253.1903             29.9158               5.9464       
       2264.4562             29.9252               5.8996       
       2275.7785             29.9343               5.8532       
       2287.1574              29.943               5.8072       
       2298.5932             29.9515               5.7616       
       2310.0862             29.9596               5.7163       
       2321.6366             29.9675               5.6714       
       2333.2448             29.9751               5.6269       
        2344.911             29.9824               5.5827       
       2356.6356             29.9895               5.5389       
       2368.4187             29.9964               5.4955       
       2380.2608              30.003               5.4524       
       2392.1621             30.0496               5.4093       
        2404.123             30.0559               5.3661       
       2416.1436             30.0619               5.3232       
       2428.2243             30.0676               5.2806       
       2440.3654              30.073               5.2385       
       2452.5672             30.0782               5.1966       
       2464.8301             30.0831               5.1551       
       2477.1542             30.0877               5.114        
        2489.54              30.0921               5.0732       
       2501.9877             30.0962               5.0327       
       2514.4976             30.1001               4.9925       
       2527.0701             30.1038               4.9527       
       2539.7055             30.1073               4.9133       
        2552.404             30.1105               4.8741       
        2565.166             30.1136               4.8351       
       2577.9919             30.1165               4.7965       
       2590.8818             30.1191               4.7582       
       2603.8362             30.1216               4.7202       
       2616.8554             30.1239               4.6825       
       2629.9397              30.126               4.6451       
       2643.0894              30.128               4.608        
       2656.3048             30.1297               4.5713       
       2669.5863             30.1313               4.5348       
       2682.9343             30.1328               4.4987       
       2696.3489             30.1341               4.4629       
       2709.8307             30.1353               4.4273       
       2723.3798             30.1363               4.3921       
       2736.9967             30.1372               4.3571       
       2750.6817             30.1379               4.3225       
       2764.4351             30.1386               4.2881       
       2778.2573             30.1391               4.2541       
       2792.1486             30.1395               4.2203       
       2806.1093             30.1397               4.1868       
       2820.1399             30.1399               4.1536       
       2834.2406              30.14                4.1206       
       2848.4118              30.14                4.088        
       2862.6539             30.1399               4.0556       
       2876.9671             30.1397               4.0235       
        2891.352             30.1394               3.9916       
       2905.8087             30.1391               3.9601       
       2920.3378             30.1387               3.9288       
       2934.9394             30.1382               3.8977       
       2949.6141             30.1377               3.8669       
       2964.3622             30.1372               3.8364       
        2979.184             30.1366               3.8062       
       2994.0799              30.136               3.7762       
       3009.0503             30.1369               3.7445       
       3024.0956             30.1381               3.7119       
       3039.2161             30.1387               3.6796       
       3054.4122             30.1388               3.6475       
       3069.6842             30.1383               3.6158       
       3085.0326             30.1375               3.5844       
       3100.4578             30.1364               3.5532       
       3115.9601             30.1349               3.5224       
       3131.5399             30.1331               3.4918       
       3147.1976             30.1312               3.4615       
       3162.9336             30.1289               3.4315       
       3178.7482             30.1265               3.4018       
        3194.642             30.1239               3.3723       
       3210.6152             30.1211               3.3432       
       3226.6683             30.1181               3.3142       
       3242.8016             30.1149               3.2856       
       3259.0156             30.1116               3.2572       
       3275.3107             30.1082               3.2291       
       3291.6873             30.1046               3.2012       
       3308.1457             30.1009               3.1736       
       3324.6864              30.097               3.1462       
       3341.3099              30.093               3.1191       
       3358.0164              30.089               3.0923       
       3374.8065             30.0848               3.0657       
       3391.6805             30.0805               3.0393       
       3408.6389             30.0761               3.0132       
       3425.6821             30.0716               2.9873       
       3442.8105              30.067               2.9617       
       3460.0246             30.0624               2.9362       
       3477.3247             30.0576               2.9111       
       3494.7113             30.0528               2.8861       
       3512.1849             30.0479               2.8614       
       3529.7458             30.0429               2.8369       
       3547.3945             30.0379               2.8126       
       3565.1315             30.0327               2.7886       
       3582.9572             30.0276               2.7647       
       3600.8719             30.0223               2.7411       
       3618.8763              30.017               2.7177       
       3636.9707             30.0116               2.6946       
       3655.1555             30.0062               2.6716       
       3673.4313             30.0007               2.6488       
       3691.7985             29.9952               2.6263       
       3710.2575             29.9896               2.6039       
       3728.8088              29.984               2.5817       
       3747.4528             29.9783               2.5598       
       3766.1901             29.9726               2.538        
        3785.021             29.9668               2.5164       
       3803.9461              29.961               2.4951       
       3822.9659             29.9551               2.4739       
       3842.0807             29.9492               2.4529       
       3861.2911             29.9433               2.4321       
       3880.5975             29.9374               2.4115       
       3900.0005             29.9314               2.3911       
       3919.5005             29.9253               2.3709       
        3939.098             29.9193               2.3508       
       3958.7935             29.9132               2.331        
       3978.5875             29.9071               2.3113       
       3998.4804             29.9009               2.2918       
       4018.4728             29.8948               2.2724       
       4038.5652             29.8886               2.2533       
        4058.758             29.8824               2.2343       
       4079.0518             29.8762               2.2155       
       4099.4471             29.8699               2.1969       
       4119.9443             29.8636               2.1784       
        4140.544             29.8574               2.1601       
       4161.2467             29.8511               2.1419       
        4182.053             29.8447               2.124        
       4202.9632             29.8384               2.1062       
       4223.9781             29.8321               2.0885       
        4245.098             29.8257               2.071        
       4266.3234             29.8194               2.0537       
       4287.6551              29.813               2.0365       
       4309.0933             29.8066               2.0195       
       4330.6388             29.8003               2.0026       
        4352.292             29.7939               1.9859       
       4374.0535             29.7875               1.9693       
       4395.9237             29.7811               1.9529       
       4417.9033             29.7748               1.9366       
       4439.9929             29.7684               1.9198       
       4462.1928              29.762               1.9032       
       4484.5038             29.7555               1.8867       
       4506.9263              29.749               1.8703       
       4529.4609             29.7424               1.854        
       4552.1082             29.7358               1.8376       
       4574.8688             29.7291               1.8214       
       4597.7431             29.7224               1.8054       
       4620.7318             29.7156               1.7895       
       4643.8355             29.7087               1.7737       
       4667.0547             29.7018               1.7581       
        4690.39              29.6949               1.7427       
       4713.8419             29.6879               1.7274       
       4737.4111             29.6809               1.7123       
       4761.0982             29.6738               1.6973       
       4784.9037             29.6667               1.6824       
       4808.8282             29.6595               1.6677       
       4832.8723             29.6523               1.6531       
       4857.0367             29.6451               1.6387       
       4881.3219             29.6379               1.6244       
       4905.7285             29.6306               1.6102       
       4930.2571             29.6233               1.5962       
       4954.9084              29.616               1.5823       
       4979.6829             29.6086               1.5686       
       5004.5814             29.6012               1.555        
       5029.6043             29.5938               1.5415       
       5054.7523             29.5864               1.5281       
        5080.026             29.5789               1.5149       
       5105.4262             29.5714               1.5018       
       5130.9533             29.5639               1.4888       
       5156.6081             29.5564               1.4759       
       5182.3911             29.5489               1.463        
       5208.3031             29.5414               1.4498       
       5234.3446             29.5337               1.4367       
       5260.5163              29.526               1.4238       
       5286.8189             29.5183               1.4109       
        5313.253             29.5105               1.3982       
       5339.8192             29.5026               1.3857       
       5366.5183             29.4947               1.3732       
       5393.3509             29.4867               1.3609       
       5420.3177             29.4787               1.3487       
       5447.4193             29.4706               1.3366       
       5474.6564             29.4625               1.3246       
       5502.0297             29.4543               1.3127       
       5529.5398             29.4461               1.301        
       5557.1875             29.4378               1.2893       
       5584.9734             29.4294               1.2778       
       5612.8983              29.421               1.2664       
       5640.9628             29.4126               1.255        
       5669.1676             29.4041               1.2438       
       5697.5135             29.3955               1.2327       
        5726.001              29.387               1.2217       
        5754.631             29.3783               1.2109       
       5783.4042             29.3696               1.2001       
       5812.3212             29.3608               1.1894       
       5841.3828              29.352               1.1788       
       5870.5897             29.3432               1.1683       
       5899.9427             29.3342               1.1579       
       5929.4424             29.3253               1.1477       
       5959.0896             29.3162               1.1375       
        5988.885             29.3071               1.1274       
       6018.8295              29.298               1.1174       
       6048.9236             29.2887               1.1075       
       6079.1682             29.2795               1.0977       
       6109.5641             29.2701               1.088        
       6140.1119             29.2607               1.0784       
       6170.8125             29.2512               1.0688       
       6201.6665             29.2416               1.0594       
       6232.6749              29.232                1.05        
       6263.8382             29.2223               1.0408       
       6295.1574             29.2125               1.0316       
       6326.6332             29.2027               1.0225       
       6358.2664             29.1928               1.0135       
       6390.0577             29.1827               1.0046       
        6422.008             29.1726              0.99576       
        6454.118             29.1624               0.987        
       6486.3886             29.1522              0.97833       
       6518.8206             29.1418              0.96975       
       6551.4147             29.1313              0.96124       
       6584.1717             29.1207              0.95281       
        6915.365             29.0257              0.87397       
        7392.525             28.8496               0.7778       
        7902.609             28.6263              0.69289       
        8447.89               28.308              0.61784       
        9030.794             27.7362              0.54929       
        9465.428             26.6177              0.50093       
        9610.307             25.2001              0.48628       
        9653.919              22.708              0.48201       
        9706.893             25.2381               3.8531       
        9851.772             26.8206               3.7401       
        10320.04             28.2422               3.4219       
        11032.12             29.0456               3.061        
        11793.34             29.4892               2.7556       
        12607.08             29.7882               2.4851       
        13476.97             29.9968               2.2238       
        14406.88             30.1393               1.9866       
        15400.95              30.237               1.7721       
        16463.62             30.3025               1.579        
        17599.61             30.3446               1.4062       
        18813.98              30.37                1.2523       
        20112.15             30.4195               1.1123       
        21499.88             30.4206              0.98624       
        22983.38             30.4141               0.8744       
        24569.23             30.4028              0.77527       
        26264.5              30.3892               0.6872       
        28076.76             30.3746               0.6061       
        30014.05             30.3546              0.53381       
        32085.02             30.3335              0.47016       
        34298.89              30.312              0.41413       
        36665.51             30.2907              0.36481       
        39195.43             30.2701              0.32137       
        41899.92             30.2505              0.28309       
        44791.01             30.2315              0.24795       
        47881.59              30.213              0.21718       
        51185.42             30.1953              0.19024       
        54717.21             30.1786              0.16665       
        58492.7               30.163              0.14599       
        62528.7              30.1484              0.12789       
        66843.18              30.135              0.11203       
        71455.36             30.1225              0.098139      
        76385.78             30.1111              0.085974      
        81656.4              30.1011              0.075223      
        87290.69             30.0916              0.065631      
        93313.74             30.0827              0.057264      
        99752.39             30.0746              0.049966      
        106635.3             30.0672              0.043599      
        113993.1             30.0605              0.038045      
        121858.7             30.0544              0.033199      
        130266.9             30.0488              0.028972      
        139255.3             30.0438              0.025283      
        148864.0             30.0393              0.022065      
        159135.6             30.0352              0.019257      
        170115.9             30.0315              0.016807      
        181853.9             30.0282              0.014669      
        194401.8             30.0252              0.012803      
        207815.6             30.0225              0.011175      
        222154.8             30.0201             0.0097545      
        237483.5              30.018             0.0085146      
        253869.9              30.016             0.0074325      
        271386.9             30.0143             0.0064882      
        290112.6             30.0128             0.0056639      
        310130.4             30.0114             0.0049445      
        331529.4             30.0101             0.0043166      
        354404.9              30.009             0.0037685      
        378858.8              30.008             0.0032901      
        405000.1             30.0071             0.0028725      
        432945.1             30.0064              0.002508      
